lead,sample,time_s,mv
I,0,0.0,-0.293368
I,1,0.003343,-0.294974
I,2,0.006685,-0.297268
I,3,0.010028,-0.300045
I,4,0.01337,-0.299632
I,5,0.016713,-0.298819
I,6,0.020056,-0.303653
I,7,0.023398,-0.31215
I,8,0.026741,-0.317663
I,9,0.030084,-0.317168
I,10,0.033426,-0.314465
I,11,0.036769,-0.314471
I,12,0.040111,-0.315673
I,13,0.043454,-0.311953
I,14,0.046797,-0.302043
I,15,0.050139,-0.289532
I,16,0.053482,-0.27913
I,17,0.056825,-0.281486
I,18,0.060167,-0.301454
I,19,0.06351,-0.329578
I,20,0.066852,-0.35984
I,21,0.070195,-0.38928
I,22,0.073538,-0.411904
I,23,0.07688,-0.429415
I,24,0.080223,-0.43461
I,25,0.083565,-0.406807
I,26,0.086908,-0.359657
I,27,0.090251,-0.289666
I,28,0.093593,-0.108851
I,29,0.096936,0.221351
I,30,0.100279,0.614859
I,31,0.103621,0.899379
I,32,0.106964,0.946613
I,33,0.110306,0.852954
I,34,0.113649,0.683072
I,35,0.116992,0.372196
I,36,0.120334,0.056765
I,37,0.123677,-0.107406
I,38,0.127019,-0.170263
I,39,0.130362,-0.198402
I,40,0.133705,-0.216884
I,41,0.137047,-0.234816
I,42,0.14039,-0.247712
I,43,0.143733,-0.258653
I,44,0.147075,-0.264273
I,45,0.150418,-0.263077
I,46,0.15376,-0.264409
I,47,0.157103,-0.271383
I,48,0.160446,-0.283916
I,49,0.163788,-0.298805
I,50,0.167131,-0.303314
I,51,0.170474,-0.292658
I,52,0.173816,-0.275907
I,53,0.177159,-0.26159
I,54,0.180501,-0.254882
I,55,0.183844,-0.258125
I,56,0.187187,-0.264863
I,57,0.190529,-0.264916
I,58,0.193872,-0.258427
I,59,0.197214,-0.253864
I,60,0.200557,-0.255031
I,61,0.2039,-0.257922
I,62,0.207242,-0.257378
I,63,0.210585,-0.253235
I,64,0.213928,-0.248839
I,65,0.21727,-0.246461
I,66,0.220613,-0.245497
I,67,0.223955,-0.242444
I,68,0.227298,-0.234161
I,69,0.230641,-0.222238
I,70,0.233983,-0.212477
I,71,0.237326,-0.210073
I,72,0.240669,-0.214792
I,73,0.244011,-0.221529
I,74,0.247354,-0.225092
I,75,0.250696,-0.222654
I,76,0.254039,-0.214821
I,77,0.257382,-0.204809
I,78,0.260724,-0.197008
I,79,0.264067,-0.19643
I,80,0.267409,-0.202692
I,81,0.270752,-0.209976
I,82,0.274095,-0.215554
I,83,0.277437,-0.218205
I,84,0.28078,-0.214678
I,85,0.284123,-0.205175
I,86,0.287465,-0.193954
I,87,0.290808,-0.183233
I,88,0.29415,-0.173403
I,89,0.297493,-0.166717
I,90,0.300836,-0.166129
I,91,0.304178,-0.170349
I,92,0.307521,-0.173776
I,93,0.310864,-0.173365
I,94,0.314206,-0.168408
I,95,0.317549,-0.159688
I,96,0.320891,-0.1502
I,97,0.324234,-0.138851
I,98,0.327577,-0.126429
I,99,0.330919,-0.119435
I,100,0.334262,-0.119108
I,101,0.337604,-0.122393
I,102,0.340947,-0.1265
I,103,0.34429,-0.129866
I,104,0.347632,-0.133483
I,105,0.350975,-0.13601
I,106,0.354318,-0.135274
I,107,0.35766,-0.132742
I,108,0.361003,-0.129169
I,109,0.364345,-0.124453
I,110,0.367688,-0.120476
I,111,0.371031,-0.117509
I,112,0.374373,-0.114529
I,113,0.377716,-0.112479
I,114,0.381058,-0.110398
I,115,0.384401,-0.105009
I,116,0.387744,-0.096101
I,117,0.391086,-0.086121
I,118,0.394429,-0.079039
I,119,0.397772,-0.078346
I,120,0.401114,-0.080653
I,121,0.404457,-0.079356
I,122,0.407799,-0.074353
I,123,0.411142,-0.067335
I,124,0.414485,-0.055422
I,125,0.417827,-0.039327
I,126,0.42117,-0.023705
I,127,0.424513,-0.008489
I,128,0.427855,0.005088
I,129,0.431198,0.010951
I,130,0.43454,0.007548
I,131,0.437883,-0.001077
I,132,0.441226,-0.010692
I,133,0.444568,-0.019923
I,134,0.447911,-0.029668
I,135,0.451253,-0.038063
I,136,0.454596,-0.041508
I,137,0.457939,-0.041169
I,138,0.461281,-0.040022
I,139,0.464624,-0.035885
I,140,0.467967,-0.026637
I,141,0.471309,-0.015049
I,142,0.474652,-0.005441
I,143,0.477994,-0.004453
I,144,0.481337,-0.014222
I,145,0.48468,-0.027584
I,146,0.488022,-0.040077
I,147,0.491365,-0.050002
I,148,0.494708,-0.052926
I,149,0.49805,-0.048542
I,150,0.501393,-0.041255
I,151,0.504735,-0.034542
I,152,0.508078,-0.028871
I,153,0.511421,-0.023302
I,154,0.514763,-0.016991
I,155,0.518106,-0.008285
I,156,0.521448,0.002765
I,157,0.524791,0.014046
I,158,0.528134,0.020888
I,159,0.531476,0.016483
I,160,0.534819,0.003566
I,161,0.538162,-0.010538
I,162,0.541504,-0.026783
I,163,0.544847,-0.040358
I,164,0.548189,-0.040236
I,165,0.551532,-0.02951
I,166,0.554875,-0.018256
I,167,0.558217,-0.0091
I,168,0.56156,-0.003476
I,169,0.564903,-0.003971
I,170,0.568245,-0.009039
I,171,0.571588,-0.013219
I,172,0.57493,-0.010193
I,173,0.578273,-0.000298
I,174,0.581616,0.010225
I,175,0.584958,0.020233
I,176,0.588301,0.028933
I,177,0.591643,0.031507
I,178,0.594986,0.029642
I,179,0.598329,0.029679
I,180,0.601671,0.033186
I,181,0.605014,0.037559
I,182,0.608357,0.040597
I,183,0.611699,0.042182
I,184,0.615042,0.043821
I,185,0.618384,0.049035
I,186,0.621727,0.058072
I,187,0.62507,0.067826
I,188,0.628412,0.078606
I,189,0.631755,0.083968
I,190,0.635097,0.074868
I,191,0.63844,0.0584
I,192,0.641783,0.043389
I,193,0.645125,0.031106
I,194,0.648468,0.026621
I,195,0.651811,0.03191
I,196,0.655153,0.041588
I,197,0.658496,0.050378
I,198,0.661838,0.053875
I,199,0.665181,0.052535
I,200,0.668524,0.049775
I,201,0.671866,0.044269
I,202,0.675209,0.038536
I,203,0.678552,0.038584
I,204,0.681894,0.042926
I,205,0.685237,0.049252
I,206,0.688579,0.057464
I,207,0.691922,0.064607
I,208,0.695265,0.068439
I,209,0.698607,0.070053
I,210,0.70195,0.073639
I,211,0.705292,0.083329
I,212,0.708635,0.097576
I,213,0.711978,0.108785
I,214,0.71532,0.107506
I,215,0.718663,0.095942
I,216,0.722006,0.08586
I,217,0.725348,0.077021
I,218,0.728691,0.067291
I,219,0.732033,0.064456
I,220,0.735376,0.069301
I,221,0.738719,0.07387
I,222,0.742061,0.072648
I,223,0.745404,0.066329
I,224,0.748747,0.059684
I,225,0.752089,0.056494
I,226,0.755432,0.057516
I,227,0.758774,0.061389
I,228,0.762117,0.065882
I,229,0.76546,0.068655
I,230,0.768802,0.06909
I,231,0.772145,0.070379
I,232,0.775487,0.076635
I,233,0.77883,0.087346
I,234,0.782173,0.098823
I,235,0.785515,0.108792
I,236,0.788858,0.116097
I,237,0.792201,0.121147
I,238,0.795543,0.126372
I,239,0.798886,0.133577
I,240,0.802228,0.140593
I,241,0.805571,0.140076
I,242,0.808914,0.12919
I,243,0.812256,0.115522
I,244,0.815599,0.103593
I,245,0.818942,0.092215
I,246,0.822284,0.085494
I,247,0.825627,0.087133
I,248,0.828969,0.093999
I,249,0.832312,0.102319
I,250,0.835655,0.109424
I,251,0.838997,0.112855
I,252,0.84234,0.111485
I,253,0.845682,0.106182
I,254,0.849025,0.100706
I,255,0.852368,0.099308
I,256,0.85571,0.10269
I,257,0.859053,0.107453
I,258,0.862396,0.110481
I,259,0.865738,0.112932
I,260,0.869081,0.116581
I,261,0.872423,0.121486
I,262,0.875766,0.128465
I,263,0.879109,0.13725
I,264,0.882451,0.146226
I,265,0.885794,0.154169
I,266,0.889136,0.157824
I,267,0.892479,0.154777
I,268,0.895822,0.148095
I,269,0.899164,0.141359
I,270,0.902507,0.134527
I,271,0.90585,0.126744
I,272,0.909192,0.11886
I,273,0.912535,0.113625
I,274,0.915877,0.112493
I,275,0.91922,0.113732
I,276,0.922563,0.116821
I,277,0.925905,0.122574
I,278,0.929248,0.129827
I,279,0.932591,0.138812
I,280,0.935933,0.149789
I,281,0.939276,0.160079
I,282,0.942618,0.169971
I,283,0.945961,0.180076
I,284,0.949304,0.186102
I,285,0.952646,0.186064
I,286,0.955989,0.183203
I,287,0.959331,0.182475
I,288,0.962674,0.188494
I,289,0.966017,0.200577
I,290,0.969359,0.214134
I,291,0.972702,0.228172
I,292,0.976045,0.24113
I,293,0.979387,0.247705
I,294,0.98273,0.246568
I,295,0.986072,0.240399
I,296,0.989415,0.232195
I,297,0.992758,0.226262
I,298,0.9961,0.22494
I,299,0.999443,0.226297
I,300,1.002786,0.227414
I,301,1.006128,0.224841
I,302,1.009471,0.21545
I,303,1.012813,0.200601
I,304,1.016156,0.184959
I,305,1.019499,0.171179
I,306,1.022841,0.158654
I,307,1.026184,0.146941
I,308,1.029526,0.138027
I,309,1.032869,0.1339
I,310,1.036212,0.134209
I,311,1.039554,0.138072
I,312,1.042897,0.144617
I,313,1.04624,0.15193
I,314,1.049582,0.159381
I,315,1.052925,0.163857
I,316,1.056267,0.158359
I,317,1.05961,0.144957
I,318,1.062953,0.13102
I,319,1.066295,0.11707
I,320,1.069638,0.106271
I,321,1.072981,0.103146
I,322,1.076323,0.105624
I,323,1.079666,0.108733
I,324,1.083008,0.10157
I,325,1.086351,0.081984
I,326,1.089694,0.058567
I,327,1.093036,0.018974
I,328,1.096379,-0.01093
I,329,1.099721,0.028877
I,330,1.103064,0.104261
I,331,1.106407,0.222702
I,332,1.109749,0.499332
I,333,1.113092,0.883708
I,334,1.116435,1.18128
I,335,1.119777,1.308297
I,336,1.12312,1.316823
I,337,1.126462,1.256401
I,338,1.129805,1.075821
I,339,1.133148,0.765414
I,340,1.13649,0.483229
I,341,1.139833,0.336488
I,342,1.143175,0.273323
I,343,1.146518,0.236866
I,344,1.149861,0.206936
I,345,1.153203,0.176007
I,346,1.156546,0.149619
I,347,1.159889,0.131199
I,348,1.163231,0.116388
I,349,1.166574,0.101642
I,350,1.169916,0.091151
I,351,1.173259,0.087684
I,352,1.176602,0.088214
I,353,1.179944,0.089299
I,354,1.183287,0.08915
I,355,1.18663,0.087839
I,356,1.189972,0.086412
I,357,1.193315,0.086182
I,358,1.196657,0.086832
I,359,1.2,0.08546
I,360,1.203343,0.08174
I,361,1.206685,0.080399
I,362,1.210028,0.084813
I,363,1.21337,0.092263
I,364,1.216713,0.096429
I,365,1.220056,0.093498
I,366,1.223398,0.085414
I,367,1.226741,0.076277
I,368,1.230084,0.069154
I,369,1.233426,0.06668
I,370,1.236769,0.069198
I,371,1.240111,0.073168
I,372,1.243454,0.075482
I,373,1.246797,0.073801
I,374,1.250139,0.065568
I,375,1.253482,0.057185
I,376,1.256825,0.058969
I,377,1.260167,0.067963
I,378,1.26351,0.076275
I,379,1.266852,0.083956
I,380,1.270195,0.090635
I,381,1.273538,0.092746
I,382,1.27688,0.090652
I,383,1.280223,0.087269
I,384,1.283565,0.08496
I,385,1.286908,0.083816
I,386,1.290251,0.07955
I,387,1.293593,0.070849
I,388,1.296936,0.062029
I,389,1.300279,0.053201
I,390,1.303621,0.044635
I,391,1.306964,0.04332
I,392,1.310306,0.049929
I,393,1.313649,0.058247
I,394,1.316992,0.067237
I,395,1.320334,0.075308
I,396,1.323677,0.077971
I,397,1.327019,0.076122
I,398,1.330362,0.072522
I,399,1.333705,0.068053
I,400,1.337047,0.063614
I,401,1.34039,0.060133
I,402,1.343733,0.059787
I,403,1.347075,0.063998
I,404,1.350418,0.070471
I,405,1.35376,0.075007
I,406,1.357103,0.074891
I,407,1.360446,0.071311
I,408,1.363788,0.068371
I,409,1.367131,0.06981
I,410,1.370474,0.076048
I,411,1.373816,0.084666
I,412,1.377159,0.090666
I,413,1.380501,0.087095
I,414,1.383844,0.074608
I,415,1.387187,0.059498
I,416,1.390529,0.044616
I,417,1.393872,0.037258
I,418,1.397214,0.042783
I,419,1.400557,0.053697
I,420,1.4039,0.06484
I,421,1.407242,0.074922
I,422,1.410585,0.078755
I,423,1.413928,0.077787
I,424,1.41727,0.078878
I,425,1.420613,0.084656
I,426,1.423955,0.095244
I,427,1.427298,0.107229
I,428,1.430641,0.1173
I,429,1.433983,0.128325
I,430,1.437326,0.138643
I,431,1.440669,0.141764
I,432,1.444011,0.140236
I,433,1.447354,0.140918
I,434,1.450696,0.144978
I,435,1.454039,0.149416
I,436,1.457382,0.151086
I,437,1.460724,0.148547
I,438,1.464067,0.14184
I,439,1.467409,0.132557
I,440,1.470752,0.122763
I,441,1.474095,0.113825
I,442,1.477437,0.107449
I,443,1.48078,0.104876
I,444,1.484123,0.10598
I,445,1.487465,0.1101
I,446,1.490808,0.115982
I,447,1.49415,0.122731
I,448,1.497493,0.129875
I,449,1.500836,0.135043
I,450,1.504178,0.136057
I,451,1.507521,0.134361
I,452,1.510864,0.132314
I,453,1.514206,0.131176
I,454,1.517549,0.130838
I,455,1.520891,0.127409
I,456,1.524234,0.118259
I,457,1.527577,0.107201
I,458,1.530919,0.098383
I,459,1.534262,0.092712
I,460,1.537604,0.091376
I,461,1.540947,0.094413
I,462,1.54429,0.094173
I,463,1.547632,0.085598
I,464,1.550975,0.074602
I,465,1.554318,0.061918
I,466,1.55766,0.048837
I,467,1.561003,0.045627
I,468,1.564345,0.051084
I,469,1.567688,0.054708
I,470,1.571031,0.052274
I,471,1.574373,0.045554
I,472,1.577716,0.039148
I,473,1.581058,0.03611
I,474,1.584401,0.037595
I,475,1.587744,0.043323
I,476,1.591086,0.050343
I,477,1.594429,0.055952
I,478,1.597772,0.057582
I,479,1.601114,0.053935
I,480,1.604457,0.04795
I,481,1.607799,0.044106
I,482,1.611142,0.045759
I,483,1.614485,0.051811
I,484,1.617827,0.057154
I,485,1.62117,0.059002
I,486,1.624513,0.057644
I,487,1.627855,0.055497
I,488,1.631198,0.052202
I,489,1.63454,0.04382
I,490,1.637883,0.036563
I,491,1.641226,0.038448
I,492,1.644568,0.045353
I,493,1.647911,0.053699
I,494,1.651253,0.062517
I,495,1.654596,0.069344
I,496,1.657939,0.07211
I,497,1.661281,0.067432
I,498,1.664624,0.056388
I,499,1.667967,0.043247
I,500,1.671309,0.02963
I,501,1.674652,0.01957
I,502,1.677994,0.016375
I,503,1.681337,0.017864
I,504,1.68468,0.0228
I,505,1.688022,0.030022
I,506,1.691365,0.037117
I,507,1.694708,0.042526
I,508,1.69805,0.04058
I,509,1.701393,0.029145
I,510,1.704735,0.015065
I,511,1.708078,0.002158
I,512,1.711421,-0.007223
I,513,1.714763,-0.010029
I,514,1.718106,-0.009742
I,515,1.721448,-0.010896
I,516,1.724791,-0.012311
I,517,1.728134,-0.01012
I,518,1.731476,-0.003441
I,519,1.734819,0.005666
I,520,1.738162,0.016256
I,521,1.741504,0.026616
I,522,1.744847,0.032504
I,523,1.748189,0.035215
I,524,1.751532,0.035366
I,525,1.754875,0.023307
I,526,1.758217,0.005348
I,527,1.76156,-0.004712
I,528,1.764903,-0.012826
I,529,1.768245,-0.01773
I,530,1.771588,-0.013919
I,531,1.77493,-0.00919
I,532,1.778273,-0.008072
I,533,1.781616,-0.010644
I,534,1.784958,-0.016298
I,535,1.788301,-0.023516
I,536,1.791643,-0.031718
I,537,1.794986,-0.038596
I,538,1.798329,-0.043284
I,539,1.801671,-0.048054
I,540,1.805014,-0.051476
I,541,1.808357,-0.05052
I,542,1.811699,-0.045674
I,543,1.815042,-0.037716
I,544,1.818384,-0.030219
I,545,1.821727,-0.028233
I,546,1.82507,-0.028762
I,547,1.828412,-0.025957
I,548,1.831755,-0.020605
I,549,1.835097,-0.015806
I,550,1.83844,-0.011762
I,551,1.841783,-0.009436
I,552,1.845125,-0.011562
I,553,1.848468,-0.018309
I,554,1.851811,-0.029124
I,555,1.855153,-0.042922
I,556,1.858496,-0.055
I,557,1.861838,-0.062255
I,558,1.865181,-0.064452
I,559,1.868524,-0.061657
I,560,1.871866,-0.058753
I,561,1.875209,-0.061378
I,562,1.878552,-0.068691
I,563,1.881894,-0.079027
I,564,1.885237,-0.089938
I,565,1.888579,-0.095275
I,566,1.891922,-0.093149
I,567,1.895265,-0.085816
I,568,1.898607,-0.074778
I,569,1.90195,-0.064267
I,570,1.905292,-0.059949
I,571,1.908635,-0.06351
I,572,1.911978,-0.071815
I,573,1.91532,-0.079759
I,574,1.918663,-0.083931
I,575,1.922006,-0.083805
I,576,1.925348,-0.080794
I,577,1.928691,-0.076137
I,578,1.932033,-0.070294
I,579,1.935376,-0.064261
I,580,1.938719,-0.062363
I,581,1.942061,-0.070519
I,582,1.945404,-0.0849
I,583,1.948747,-0.095396
I,584,1.952089,-0.100342
I,585,1.955432,-0.100509
I,586,1.958774,-0.095404
I,587,1.962117,-0.090999
I,588,1.96546,-0.091974
I,589,1.968802,-0.095683
I,590,1.972145,-0.097126
I,591,1.975487,-0.091229
I,592,1.97883,-0.07944
I,593,1.982173,-0.068983
I,594,1.985515,-0.062236
I,595,1.988858,-0.058625
I,596,1.992201,-0.056763
I,597,1.995543,-0.053175
I,598,1.998886,-0.048214
I,599,2.002228,-0.04613
I,600,2.005571,-0.050164
I,601,2.008914,-0.059139
I,602,2.012256,-0.066532
I,603,2.015599,-0.067028
I,604,2.018942,-0.062305
I,605,2.022284,-0.056206
I,606,2.025627,-0.048905
I,607,2.028969,-0.040674
I,608,2.032312,-0.036606
I,609,2.035655,-0.043317
I,610,2.038997,-0.063543
I,611,2.04234,-0.094386
I,612,2.045682,-0.126845
I,613,2.049025,-0.146862
I,614,2.052368,-0.145057
I,615,2.05571,-0.129329
I,616,2.059053,-0.115898
I,617,2.062396,-0.11325
I,618,2.065738,-0.123054
I,619,2.069081,-0.140437
I,620,2.072423,-0.158488
I,621,2.075766,-0.174688
I,622,2.079109,-0.186324
I,623,2.082451,-0.192872
I,624,2.085794,-0.197893
I,625,2.089136,-0.202041
I,626,2.092479,-0.202633
I,627,2.095822,-0.199537
I,628,2.099164,-0.19792
I,629,2.102507,-0.204041
I,630,2.10585,-0.22249
I,631,2.109192,-0.251256
I,632,2.112535,-0.279092
I,633,2.115877,-0.306044
I,634,2.11922,-0.323082
I,635,2.122563,-0.309716
I,636,2.125905,-0.289662
I,637,2.129248,-0.187686
I,638,2.132591,0.029695
I,639,2.135933,0.186764
I,640,2.139276,0.441182
I,641,2.142618,0.84877
I,642,2.145961,0.987751
I,643,2.149304,0.966049
I,644,2.152646,0.94807
I,645,2.155989,0.659384
I,646,2.159331,0.256369
I,647,2.162674,0.023428
I,648,2.166017,-0.089996
I,649,2.169359,-0.142636
I,650,2.172702,-0.158348
I,651,2.176045,-0.166687
I,652,2.179387,-0.172077
I,653,2.18273,-0.183322
I,654,2.186072,-0.201638
I,655,2.189415,-0.218503
I,656,2.192758,-0.229794
I,657,2.1961,-0.233883
I,658,2.199443,-0.235417
I,659,2.202786,-0.241759
I,660,2.206128,-0.253922
I,661,2.209471,-0.265914
I,662,2.212813,-0.270492
I,663,2.216156,-0.266157
I,664,2.219499,-0.257566
I,665,2.222841,-0.249716
I,666,2.226184,-0.244528
I,667,2.229526,-0.244599
I,668,2.232869,-0.249742
I,669,2.236212,-0.25297
I,670,2.239554,-0.252605
I,671,2.242897,-0.252226
I,672,2.24624,-0.249435
I,673,2.249582,-0.240982
I,674,2.252925,-0.227564
I,675,2.256267,-0.213469
I,676,2.25961,-0.206753
I,677,2.262953,-0.20901
I,678,2.266295,-0.212529
I,679,2.269638,-0.212876
I,680,2.272981,-0.210169
I,681,2.276323,-0.202954
I,682,2.279666,-0.19574
I,683,2.283008,-0.199106
I,684,2.286351,-0.210761
I,685,2.289694,-0.218267
I,686,2.293036,-0.217942
I,687,2.296379,-0.21164
I,688,2.299721,-0.201476
I,689,2.303064,-0.192381
I,690,2.306407,-0.188587
I,691,2.309749,-0.189378
I,692,2.313092,-0.189298
I,693,2.316435,-0.187777
I,694,2.319777,-0.191006
I,695,2.32312,-0.196926
I,696,2.326462,-0.198476
I,697,2.329805,-0.196357
I,698,2.333148,-0.19114
I,699,2.33649,-0.181034
I,700,2.339833,-0.169485
I,701,2.343175,-0.159872
I,702,2.346518,-0.151017
I,703,2.349861,-0.144049
I,704,2.353203,-0.1432
I,705,2.356546,-0.148033
I,706,2.359889,-0.155087
I,707,2.363231,-0.162418
I,708,2.366574,-0.165963
I,709,2.369916,-0.161852
I,710,2.373259,-0.152697
I,711,2.376602,-0.140319
I,712,2.379944,-0.130515
I,713,2.383287,-0.137121
I,714,2.38663,-0.151827
I,715,2.389972,-0.161557
I,716,2.393315,-0.167837
I,717,2.396657,-0.164497
II,0,0.0,0.007238
II,1,0.003343,0.011771
II,2,0.006685,0.002623
II,3,0.010028,-0.020456
II,4,0.01337,-0.030087
II,5,0.016713,-0.029763
II,6,0.020056,-0.038823
II,7,0.023398,-0.046016
II,8,0.026741,-0.046278
II,9,0.030084,-0.049504
II,10,0.033426,-0.056434
II,11,0.036769,-0.060889
II,12,0.040111,-0.056701
II,13,0.043454,-0.044168
II,14,0.046797,-0.029533
II,15,0.050139,-0.015338
II,16,0.053482,-0.005342
II,17,0.056825,-0.004316
II,18,0.060167,-0.008456
II,19,0.06351,-0.013708
II,20,0.066852,-0.014209
II,21,0.070195,-0.000203
II,22,0.073538,0.021907
II,23,0.07688,0.045471
II,24,0.080223,0.084268
II,25,0.083565,0.142724
II,26,0.086908,0.206272
II,27,0.090251,0.279786
II,28,0.093593,0.382009
II,29,0.096936,0.483872
II,30,0.100279,0.52653
II,31,0.103621,0.44931
II,32,0.106964,0.24823
II,33,0.110306,0.055221
II,34,0.113649,-0.077049
II,35,0.116992,-0.220408
II,36,0.120334,-0.325547
II,37,0.123677,-0.337822
II,38,0.127019,-0.307493
II,39,0.130362,-0.260623
II,40,0.133705,-0.203721
II,41,0.137047,-0.156318
II,42,0.14039,-0.121399
II,43,0.143733,-0.090353
II,44,0.147075,-0.062901
II,45,0.150418,-0.043725
II,46,0.15376,-0.037539
II,47,0.157103,-0.046359
II,48,0.160446,-0.060419
II,49,0.163788,-0.066889
II,50,0.167131,-0.063304
II,51,0.170474,-0.054766
II,52,0.173816,-0.046845
II,53,0.177159,-0.03985
II,54,0.180501,-0.032176
II,55,0.183844,-0.028486
II,56,0.187187,-0.033394
II,57,0.190529,-0.041055
II,58,0.193872,-0.044186
II,59,0.197214,-0.044896
II,60,0.200557,-0.045075
II,61,0.2039,-0.042104
II,62,0.207242,-0.037354
II,63,0.210585,-0.035012
II,64,0.213928,-0.035674
II,65,0.21727,-0.037282
II,66,0.220613,-0.03786
II,67,0.223955,-0.034741
II,68,0.227298,-0.02785
II,69,0.230641,-0.021664
II,70,0.233983,-0.018051
II,71,0.237326,-0.015786
II,72,0.240669,-0.016151
II,73,0.244011,-0.018999
II,74,0.247354,-0.020127
II,75,0.250696,-0.017693
II,76,0.254039,-0.014766
II,77,0.257382,-0.013631
II,78,0.260724,-0.013425
II,79,0.264067,-0.015894
II,80,0.267409,-0.022971
II,81,0.270752,-0.031843
II,82,0.274095,-0.041686
II,83,0.277437,-0.05066
II,84,0.28078,-0.050907
II,85,0.284123,-0.041973
II,86,0.287465,-0.032174
II,87,0.290808,-0.024721
II,88,0.29415,-0.018969
II,89,0.297493,-0.015096
II,90,0.300836,-0.011222
II,91,0.304178,-0.007086
II,92,0.307521,-0.00658
II,93,0.310864,-0.01037
II,94,0.314206,-0.012578
II,95,0.317549,-0.008096
II,96,0.320891,0.00137
II,97,0.324234,0.012499
II,98,0.327577,0.024139
II,99,0.330919,0.032759
II,100,0.334262,0.035248
II,101,0.337604,0.034398
II,102,0.340947,0.035222
II,103,0.34429,0.039752
II,104,0.347632,0.047117
II,105,0.350975,0.056277
II,106,0.354318,0.064129
II,107,0.35766,0.066991
II,108,0.361003,0.066906
II,109,0.364345,0.067144
II,110,0.367688,0.067209
II,111,0.371031,0.066886
II,112,0.374373,0.067012
II,113,0.377716,0.067057
II,114,0.381058,0.067242
II,115,0.384401,0.06995
II,116,0.387744,0.073193
II,117,0.391086,0.070264
II,118,0.394429,0.061018
II,119,0.397772,0.050231
II,120,0.401114,0.039253
II,121,0.404457,0.030823
II,122,0.407799,0.028122
II,123,0.411142,0.028145
II,124,0.414485,0.028099
II,125,0.417827,0.030571
II,126,0.42117,0.036622
II,127,0.424513,0.042535
II,128,0.427855,0.046766
II,129,0.431198,0.050457
II,130,0.43454,0.049905
II,131,0.437883,0.041741
II,132,0.441226,0.030605
II,133,0.444568,0.020114
II,134,0.447911,0.008566
II,135,0.451253,-0.002369
II,136,0.454596,-0.008619
II,137,0.457939,-0.010089
II,138,0.461281,-0.007752
II,139,0.464624,-0.001628
II,140,0.467967,0.005755
II,141,0.471309,0.013478
II,142,0.474652,0.022959
II,143,0.477994,0.026031
II,144,0.481337,0.016929
II,145,0.48468,0.004454
II,146,0.488022,-0.010139
II,147,0.491365,-0.027008
II,148,0.494708,-0.033459
II,149,0.49805,-0.028101
II,150,0.501393,-0.020278
II,151,0.504735,-0.011391
II,152,0.508078,-0.003503
II,153,0.511421,-0.0028
II,154,0.514763,-0.007299
II,155,0.518106,-0.007274
II,156,0.521448,-0.000673
II,157,0.524791,0.007703
II,158,0.528134,0.018306
II,159,0.531476,0.024864
II,160,0.534819,0.018093
II,161,0.538162,0.005687
II,162,0.541504,-0.00606
II,163,0.544847,-0.017844
II,164,0.548189,-0.021073
II,165,0.551532,-0.013285
II,166,0.554875,-0.003502
II,167,0.558217,0.004539
II,168,0.56156,0.008496
II,169,0.564903,0.004882
II,170,0.568245,-0.003112
II,171,0.571588,-0.010855
II,172,0.57493,-0.01433
II,173,0.578273,-0.009583
II,174,0.581616,0.000715
II,175,0.584958,0.01127
II,176,0.588301,0.020097
II,177,0.591643,0.027037
II,178,0.594986,0.033385
II,179,0.598329,0.039557
II,180,0.601671,0.044691
II,181,0.605014,0.047872
II,182,0.608357,0.04743
II,183,0.611699,0.043684
II,184,0.615042,0.039222
II,185,0.618384,0.037226
II,186,0.621727,0.039591
II,187,0.62507,0.04653
II,188,0.628412,0.056443
II,189,0.631755,0.059144
II,190,0.635097,0.050138
II,191,0.63844,0.038793
II,192,0.641783,0.024595
II,193,0.645125,0.008498
II,194,0.648468,0.004104
II,195,0.651811,0.011092
II,196,0.655153,0.019414
II,197,0.658496,0.025842
II,198,0.661838,0.028728
II,199,0.665181,0.02626
II,200,0.668524,0.019864
II,201,0.671866,0.013865
II,202,0.675209,0.009839
II,203,0.678552,0.006763
II,204,0.681894,0.008164
II,205,0.685237,0.015873
II,206,0.688579,0.024481
II,207,0.691922,0.03152
II,208,0.695265,0.038122
II,209,0.698607,0.043331
II,210,0.70195,0.047797
II,211,0.705292,0.053377
II,212,0.708635,0.058748
II,213,0.711978,0.06031
II,214,0.71532,0.055952
II,215,0.718663,0.047309
II,216,0.722006,0.036967
II,217,0.725348,0.027345
II,218,0.728691,0.021892
II,219,0.732033,0.021162
II,220,0.735376,0.022382
II,221,0.738719,0.022427
II,222,0.742061,0.0186
II,223,0.745404,0.011123
II,224,0.748747,0.003131
II,225,0.752089,-0.001263
II,226,0.755432,0.000725
II,227,0.758774,0.007725
II,228,0.762117,0.015985
II,229,0.76546,0.021397
II,230,0.768802,0.020866
II,231,0.772145,0.016689
II,232,0.775487,0.015772
II,233,0.77883,0.020676
II,234,0.782173,0.02842
II,235,0.785515,0.037222
II,236,0.788858,0.044453
II,237,0.792201,0.047439
II,238,0.795543,0.049487
II,239,0.798886,0.054335
II,240,0.802228,0.059223
II,241,0.805571,0.056983
II,242,0.808914,0.046494
II,243,0.812256,0.03424
II,244,0.815599,0.022354
II,245,0.818942,0.012454
II,246,0.822284,0.00936
II,247,0.825627,0.011658
II,248,0.828969,0.016626
II,249,0.832312,0.024407
II,250,0.835655,0.030416
II,251,0.838997,0.031581
II,252,0.84234,0.030389
II,253,0.845682,0.023359
II,254,0.849025,0.011861
II,255,0.852368,0.00742
II,256,0.85571,0.009664
II,257,0.859053,0.012936
II,258,0.862396,0.016779
II,259,0.865738,0.016538
II,260,0.869081,0.011652
II,261,0.872423,0.01155
II,262,0.875766,0.020773
II,263,0.879109,0.033469
II,264,0.882451,0.044992
II,265,0.885794,0.053803
II,266,0.889136,0.055361
II,267,0.892479,0.049168
II,268,0.895822,0.042025
II,269,0.899164,0.03705
II,270,0.902507,0.031656
II,271,0.90585,0.023751
II,272,0.909192,0.013269
II,273,0.912535,0.004317
II,274,0.915877,0.00214
II,275,0.91922,0.006377
II,276,0.922563,0.013161
II,277,0.925905,0.018244
II,278,0.929248,0.018853
II,279,0.932591,0.017516
II,280,0.935933,0.020844
II,281,0.939276,0.031502
II,282,0.942618,0.044055
II,283,0.945961,0.054027
II,284,0.949304,0.063439
II,285,0.952646,0.072943
II,286,0.955989,0.08007
II,287,0.959331,0.085915
II,288,0.962674,0.094166
II,289,0.966017,0.103324
II,290,0.969359,0.110427
II,291,0.972702,0.118219
II,292,0.976045,0.124443
II,293,0.979387,0.121483
II,294,0.98273,0.111102
II,295,0.986072,0.100008
II,296,0.989415,0.088342
II,297,0.992758,0.07171
II,298,0.9961,0.054547
II,299,0.999443,0.045966
II,300,1.002786,0.039976
II,301,1.006128,0.029549
II,302,1.009471,0.021397
II,303,1.012813,0.017874
II,304,1.016156,0.013769
II,305,1.019499,0.007632
II,306,1.022841,-0.00101
II,307,1.026184,-0.013269
II,308,1.029526,-0.025157
II,309,1.032869,-0.030395
II,310,1.036212,-0.026027
II,311,1.039554,-0.014555
II,312,1.042897,-0.00298
II,313,1.04624,0.005023
II,314,1.049582,0.009555
II,315,1.052925,0.009863
II,316,1.056267,0.005831
II,317,1.05961,-0.003048
II,318,1.062953,-0.017199
II,319,1.066295,-0.034005
II,320,1.069638,-0.048745
II,321,1.072981,-0.053612
II,322,1.076323,-0.041278
II,323,1.079666,-0.01422
II,324,1.083008,0.017335
II,325,1.086351,0.046362
II,326,1.089694,0.075147
II,327,1.093036,0.105661
II,328,1.096379,0.136695
II,329,1.099721,0.18344
II,330,1.103064,0.276829
II,331,1.106407,0.425691
II,332,1.109749,0.59074
II,333,1.113092,0.7071
II,334,1.116435,0.698912
II,335,1.119777,0.524137
II,336,1.12312,0.269093
II,337,1.126462,0.058681
II,338,1.129805,-0.105611
II,339,1.133148,-0.244077
II,340,1.13649,-0.313567
II,341,1.139833,-0.312895
II,342,1.143175,-0.271278
II,343,1.146518,-0.206049
II,344,1.149861,-0.150334
II,345,1.153203,-0.117611
II,346,1.156546,-0.091645
II,347,1.159889,-0.06768
II,348,1.163231,-0.055566
II,349,1.166574,-0.057576
II,350,1.169916,-0.065167
II,351,1.173259,-0.06946
II,352,1.176602,-0.064931
II,353,1.179944,-0.053296
II,354,1.183287,-0.042318
II,355,1.18663,-0.03678
II,356,1.189972,-0.038289
II,357,1.193315,-0.044885
II,358,1.196657,-0.049243
II,359,1.2,-0.048651
II,360,1.203343,-0.046498
II,361,1.206685,-0.044015
II,362,1.210028,-0.039928
II,363,1.21337,-0.031924
II,364,1.216713,-0.021941
II,365,1.220056,-0.018903
II,366,1.223398,-0.023916
II,367,1.226741,-0.029731
II,368,1.230084,-0.038961
II,369,1.233426,-0.049986
II,370,1.236769,-0.050099
II,371,1.240111,-0.042569
II,372,1.243454,-0.037754
II,373,1.246797,-0.035994
II,374,1.250139,-0.038365
II,375,1.253482,-0.042933
II,376,1.256825,-0.040734
II,377,1.260167,-0.03061
II,378,1.26351,-0.020552
II,379,1.266852,-0.015185
II,380,1.270195,-0.015287
II,381,1.273538,-0.018777
II,382,1.27688,-0.019864
II,383,1.280223,-0.015771
II,384,1.283565,-0.009072
II,385,1.286908,-0.005731
II,386,1.290251,-0.00961
II,387,1.293593,-0.017375
II,388,1.296936,-0.025026
II,389,1.300279,-0.030979
II,390,1.303621,-0.033856
II,391,1.306964,-0.03482
II,392,1.310306,-0.034306
II,393,1.313649,-0.029539
II,394,1.316992,-0.020346
II,395,1.320334,-0.010696
II,396,1.323677,-0.004835
II,397,1.327019,-0.004062
II,398,1.330362,-0.00583
II,399,1.333705,-0.006159
II,400,1.337047,-0.002682
II,401,1.34039,0.004168
II,402,1.343733,0.012926
II,403,1.347075,0.021896
II,404,1.350418,0.029404
II,405,1.35376,0.036416
II,406,1.357103,0.043864
II,407,1.360446,0.049509
II,408,1.363788,0.053164
II,409,1.367131,0.058557
II,410,1.370474,0.067076
II,411,1.373816,0.076621
II,412,1.377159,0.08409
II,413,1.380501,0.08527
II,414,1.383844,0.07887
II,415,1.387187,0.067877
II,416,1.390529,0.05834
II,417,1.393872,0.058167
II,418,1.397214,0.067377
II,419,1.400557,0.078193
II,420,1.4039,0.084634
II,421,1.407242,0.083195
II,422,1.410585,0.07562
II,423,1.413928,0.067625
II,424,1.41727,0.06022
II,425,1.420613,0.053331
II,426,1.423955,0.051425
II,427,1.427298,0.055999
II,428,1.430641,0.060128
II,429,1.433983,0.057906
II,430,1.437326,0.051652
II,431,1.440669,0.045257
II,432,1.444011,0.040817
II,433,1.447354,0.041037
II,434,1.450696,0.046341
II,435,1.454039,0.051406
II,436,1.457382,0.050162
II,437,1.460724,0.043849
II,438,1.464067,0.036704
II,439,1.467409,0.029677
II,440,1.470752,0.022357
II,441,1.474095,0.01232
II,442,1.477437,0.003819
II,443,1.48078,0.005998
II,444,1.484123,0.012976
II,445,1.487465,0.015988
II,446,1.490808,0.018416
II,447,1.49415,0.022744
II,448,1.497493,0.027298
II,449,1.500836,0.032059
II,450,1.504178,0.037718
II,451,1.507521,0.043991
II,452,1.510864,0.050076
II,453,1.514206,0.050804
II,454,1.517549,0.040795
II,455,1.520891,0.027468
II,456,1.524234,0.019499
II,457,1.527577,0.014264
II,458,1.530919,0.01074
II,459,1.534262,0.012867
II,460,1.537604,0.022918
II,461,1.540947,0.037647
II,462,1.54429,0.045348
II,463,1.547632,0.039137
II,464,1.550975,0.026608
II,465,1.554318,0.015156
II,466,1.55766,0.00783
II,467,1.561003,0.007996
II,468,1.564345,0.01237
II,469,1.567688,0.015533
II,470,1.571031,0.016517
II,471,1.574373,0.014689
II,472,1.577716,0.011188
II,473,1.581058,0.009356
II,474,1.584401,0.011013
II,475,1.587744,0.016264
II,476,1.591086,0.023443
II,477,1.594429,0.029163
II,478,1.597772,0.031557
II,479,1.601114,0.031664
II,480,1.604457,0.031336
II,481,1.607799,0.032845
II,482,1.611142,0.038113
II,483,1.614485,0.045712
II,484,1.617827,0.051773
II,485,1.62117,0.053929
II,486,1.624513,0.051644
II,487,1.627855,0.045152
II,488,1.631198,0.036826
II,489,1.63454,0.030559
II,490,1.637883,0.028493
II,491,1.641226,0.030623
II,492,1.644568,0.03626
II,493,1.647911,0.043835
II,494,1.651253,0.051001
II,495,1.654596,0.056786
II,496,1.657939,0.060705
II,497,1.661281,0.059639
II,498,1.664624,0.052075
II,499,1.667967,0.040862
II,500,1.671309,0.028914
II,501,1.674652,0.019862
II,502,1.677994,0.016962
II,503,1.681337,0.019391
II,504,1.68468,0.025045
II,505,1.688022,0.03249
II,506,1.691365,0.040356
II,507,1.694708,0.045129
II,508,1.69805,0.042169
II,509,1.701393,0.032718
II,510,1.704735,0.021695
II,511,1.708078,0.012121
II,512,1.711421,0.00673
II,513,1.714763,0.005764
II,514,1.718106,0.00582
II,515,1.721448,0.005097
II,516,1.724791,0.005839
II,517,1.728134,0.009863
II,518,1.731476,0.016165
II,519,1.734819,0.025577
II,520,1.738162,0.037311
II,521,1.741504,0.047477
II,522,1.744847,0.054231
II,523,1.748189,0.052692
II,524,1.751532,0.041323
II,525,1.754875,0.027865
II,526,1.758217,0.01689
II,527,1.76156,0.011828
II,528,1.764903,0.016457
II,529,1.768245,0.025057
II,530,1.771588,0.029711
II,531,1.77493,0.031677
II,532,1.778273,0.033127
II,533,1.781616,0.029842
II,534,1.784958,0.024643
II,535,1.788301,0.021077
II,536,1.791643,0.010503
II,537,1.794986,-0.004065
II,538,1.798329,-0.010467
II,539,1.801671,-0.011571
II,540,1.805014,-0.011189
II,541,1.808357,-0.007029
II,542,1.811699,-0.000372
II,543,1.815042,0.007814
II,544,1.818384,0.014871
II,545,1.821727,0.015315
II,546,1.82507,0.01168
II,547,1.828412,0.01171
II,548,1.831755,0.01679
II,549,1.835097,0.023603
II,550,1.83844,0.030324
II,551,1.841783,0.03617
II,552,1.845125,0.038315
II,553,1.848468,0.033609
II,554,1.851811,0.023478
II,555,1.855153,0.011283
II,556,1.858496,-0.001193
II,557,1.861838,-0.01016
II,558,1.865181,-0.012334
II,559,1.868524,-0.009641
II,560,1.871866,-0.006753
II,561,1.875209,-0.008512
II,562,1.878552,-0.015353
II,563,1.881894,-0.021631
II,564,1.885237,-0.023254
II,565,1.888579,-0.020783
II,566,1.891922,-0.015815
II,567,1.895265,-0.009661
II,568,1.898607,-0.003049
II,569,1.90195,0.002414
II,570,1.905292,0.002902
II,571,1.908635,-0.002408
II,572,1.911978,-0.009053
II,573,1.91532,-0.013506
II,574,1.918663,-0.01439
II,575,1.922006,-0.010593
II,576,1.925348,-0.002572
II,577,1.928691,0.007153
II,578,1.932033,0.013763
II,579,1.935376,0.015823
II,580,1.938719,0.01253
II,581,1.942061,-0.000923
II,582,1.945404,-0.015893
II,583,1.948747,-0.020762
II,584,1.952089,-0.023112
II,585,1.955432,-0.026401
II,586,1.958774,-0.023377
II,587,1.962117,-0.01526
II,588,1.96546,-0.008536
II,589,1.968802,-0.004803
II,590,1.972145,0.002497
II,591,1.975487,0.015253
II,592,1.97883,0.026646
II,593,1.982173,0.039175
II,594,1.985515,0.054131
II,595,1.988858,0.061336
II,596,1.992201,0.059979
II,597,1.995543,0.056887
II,598,1.998886,0.054891
II,599,2.002228,0.055045
II,600,2.005571,0.052239
II,601,2.008914,0.042778
II,602,2.012256,0.031334
II,603,2.015599,0.01825
II,604,2.018942,0.005565
II,605,2.022284,0.001126
II,606,2.025627,0.003103
II,607,2.028969,0.006214
II,608,2.032312,0.008524
II,609,2.035655,0.004842
II,610,2.038997,-0.005673
II,611,2.04234,-0.01975
II,612,2.045682,-0.037661
II,613,2.049025,-0.053293
II,614,2.052368,-0.059062
II,615,2.05571,-0.059217
II,616,2.059053,-0.05655
II,617,2.062396,-0.050365
II,618,2.065738,-0.048798
II,619,2.069081,-0.056146
II,620,2.072423,-0.068578
II,621,2.075766,-0.085524
II,622,2.079109,-0.099061
II,623,2.082451,-0.099193
II,624,2.085794,-0.093157
II,625,2.089136,-0.091033
II,626,2.092479,-0.096399
II,627,2.095822,-0.108405
II,628,2.099164,-0.112739
II,629,2.102507,-0.098378
II,630,2.10585,-0.074189
II,631,2.109192,-0.049773
II,632,2.112535,-0.026049
II,633,2.115877,-0.000505
II,634,2.11922,0.03043
II,635,2.122563,0.064166
II,636,2.125905,0.114656
II,637,2.129248,0.20286
II,638,2.132591,0.299566
II,639,2.135933,0.386488
II,640,2.139276,0.45821
II,641,2.142618,0.424637
II,642,2.145961,0.247434
II,643,2.149304,0.042175
II,644,2.152646,-0.112161
II,645,2.155989,-0.24753
II,646,2.159331,-0.360316
II,647,2.162674,-0.41336
II,648,2.166017,-0.416805
II,649,2.169359,-0.375415
II,650,2.172702,-0.296283
II,651,2.176045,-0.224973
II,652,2.179387,-0.183914
II,653,2.18273,-0.156505
II,654,2.186072,-0.13309
II,655,2.189415,-0.121695
II,656,2.192758,-0.125316
II,657,2.1961,-0.134852
II,658,2.199443,-0.141104
II,659,2.202786,-0.143837
II,660,2.206128,-0.148345
II,661,2.209471,-0.153905
II,662,2.212813,-0.156857
II,663,2.216156,-0.156084
II,664,2.219499,-0.149968
II,665,2.222841,-0.139884
II,666,2.226184,-0.129967
II,667,2.229526,-0.124504
II,668,2.232869,-0.127323
II,669,2.236212,-0.136108
II,670,2.239554,-0.143452
II,671,2.242897,-0.144802
II,672,2.24624,-0.140397
II,673,2.249582,-0.133468
II,674,2.252925,-0.12899
II,675,2.256267,-0.12935
II,676,2.25961,-0.130854
II,677,2.262953,-0.129429
II,678,2.266295,-0.127152
II,679,2.269638,-0.126952
II,680,2.272981,-0.126655
II,681,2.276323,-0.12483
II,682,2.279666,-0.124785
II,683,2.283008,-0.128283
II,684,2.286351,-0.133962
II,685,2.289694,-0.142327
II,686,2.293036,-0.152012
II,687,2.296379,-0.156588
II,688,2.299721,-0.153115
II,689,2.303064,-0.145627
II,690,2.306407,-0.137116
II,691,2.309749,-0.130725
II,692,2.313092,-0.135323
II,693,2.316435,-0.148574
II,694,2.319777,-0.156363
II,695,2.32312,-0.157409
II,696,2.326462,-0.156276
II,697,2.329805,-0.152634
II,698,2.333148,-0.149419
II,699,2.33649,-0.148222
II,700,2.339833,-0.144525
II,701,2.343175,-0.136086
II,702,2.346518,-0.125919
II,703,2.349861,-0.116513
II,704,2.353203,-0.112079
II,705,2.356546,-0.117123
II,706,2.359889,-0.126568
II,707,2.363231,-0.13045
II,708,2.366574,-0.124848
II,709,2.369916,-0.114883
II,710,2.373259,-0.106865
II,711,2.376602,-0.099987
II,712,2.379944,-0.0956
II,713,2.383287,-0.098222
II,714,2.38663,-0.103494
II,715,2.389972,-0.105801
II,716,2.393315,-0.107058
II,717,2.396657,-0.109396
III,0,0.0,0.295473
III,1,0.003343,0.299312
III,2,0.006685,0.295255
III,3,0.010028,0.256061
III,4,0.01337,0.218621
III,5,0.016713,0.219938
III,6,0.020056,0.228287
III,7,0.023398,0.22922
III,8,0.026741,0.235802
III,9,0.030084,0.240037
III,10,0.033426,0.232206
III,11,0.036769,0.220787
III,12,0.040111,0.218407
III,13,0.043454,0.226255
III,14,0.046797,0.238557
III,15,0.050139,0.248245
III,16,0.053482,0.24957
III,17,0.056825,0.246082
III,18,0.060167,0.250129
III,19,0.06351,0.271669
III,20,0.066852,0.305119
III,21,0.070195,0.342374
III,22,0.073538,0.388155
III,23,0.07688,0.441293
III,24,0.080223,0.493049
III,25,0.083565,0.54483
III,26,0.086908,0.5614
III,27,0.090251,0.487985
III,28,0.093593,0.368245
III,29,0.096936,0.21927
III,30,0.100279,-0.063592
III,31,0.103621,-0.465561
III,32,0.106964,-0.801247
III,33,0.110306,-0.946356
III,34,0.113649,-0.907452
III,35,0.116992,-0.724117
III,36,0.120334,-0.485978
III,37,0.123677,-0.30011
III,38,0.127019,-0.171681
III,39,0.130362,-0.067073
III,40,0.133705,0.018185
III,41,0.137047,0.084128
III,42,0.14039,0.131996
III,43,0.143733,0.169185
III,44,0.147075,0.201922
III,45,0.150418,0.225256
III,46,0.15376,0.235115
III,47,0.157103,0.235726
III,48,0.160446,0.236253
III,49,0.163788,0.243037
III,50,0.167131,0.251375
III,51,0.170474,0.253903
III,52,0.173816,0.251282
III,53,0.177159,0.247692
III,54,0.180501,0.246352
III,55,0.183844,0.249335
III,56,0.187187,0.254286
III,57,0.190529,0.256058
III,58,0.193872,0.253727
III,59,0.197214,0.25107
III,60,0.200557,0.252572
III,61,0.2039,0.258997
III,62,0.207242,0.26512
III,63,0.210585,0.266433
III,64,0.213928,0.26408
III,65,0.21727,0.260371
III,66,0.220613,0.256282
III,67,0.223955,0.251773
III,68,0.227298,0.247316
III,69,0.230641,0.245542
III,70,0.233983,0.247255
III,71,0.237326,0.251267
III,72,0.240669,0.257458
III,73,0.244011,0.263148
III,74,0.247354,0.265679
III,75,0.250696,0.267846
III,76,0.254039,0.267567
III,77,0.257382,0.257885
III,78,0.260724,0.245789
III,79,0.264067,0.242206
III,80,0.267409,0.243488
III,81,0.270752,0.243813
III,82,0.274095,0.242402
III,83,0.277437,0.23995
III,84,0.28078,0.238713
III,85,0.284123,0.237691
III,86,0.287465,0.234048
III,87,0.290808,0.22983
III,88,0.29415,0.229492
III,89,0.297493,0.234187
III,90,0.300836,0.24165
III,91,0.304178,0.247975
III,92,0.307521,0.249813
III,93,0.310864,0.247744
III,94,0.314206,0.2451
III,95,0.317549,0.243893
III,96,0.320891,0.243815
III,97,0.324234,0.244017
III,98,0.327577,0.244732
III,99,0.330919,0.246065
III,100,0.334262,0.248005
III,101,0.337604,0.252019
III,102,0.340947,0.25887
III,103,0.34429,0.26767
III,104,0.347632,0.277043
III,105,0.350975,0.28696
III,106,0.354318,0.298688
III,107,0.35766,0.307841
III,108,0.361003,0.308477
III,109,0.364345,0.302511
III,110,0.367688,0.293991
III,111,0.371031,0.287138
III,112,0.374373,0.287172
III,113,0.377716,0.29329
III,114,0.381058,0.298965
III,115,0.384401,0.296365
III,116,0.387744,0.280053
III,117,0.391086,0.26205
III,118,0.394429,0.258577
III,119,0.397772,0.254992
III,120,0.401114,0.240563
III,121,0.404457,0.228032
III,122,0.407799,0.212628
III,123,0.411142,0.194048
III,124,0.414485,0.186361
III,125,0.417827,0.183495
III,126,0.42117,0.17543
III,127,0.424513,0.162211
III,128,0.427855,0.147834
III,129,0.431198,0.142009
III,130,0.43454,0.148603
III,131,0.437883,0.159399
III,132,0.441226,0.164254
III,133,0.444568,0.158615
III,134,0.447911,0.146779
III,135,0.451253,0.139087
III,136,0.454596,0.143835
III,137,0.457939,0.159483
III,138,0.461281,0.164623
III,139,0.464624,0.156364
III,140,0.467967,0.157807
III,141,0.471309,0.119173
III,142,0.474652,0.14217
III,143,0.477994,0.240015
III,144,0.481337,-0.035558
III,145,0.48468,-0.350628
III,146,0.488022,-0.062033
III,147,0.491365,0.212912
III,148,0.494708,0.131183
III,149,0.49805,0.124419
III,150,0.501393,0.180097
III,151,0.504735,0.121283
III,152,0.508078,0.129967
III,153,0.511421,0.226427
III,154,0.514763,-0.118203
III,155,0.518106,-0.488919
III,156,0.521448,-0.118234
III,157,0.524791,0.220511
III,158,0.528134,0.113779
III,159,0.531476,0.097502
III,160,0.534819,0.151347
III,161,0.538162,0.14988
III,162,0.541504,0.155629
III,163,0.544847,0.147546
III,164,0.548189,0.131915
III,165,0.551532,0.129075
III,166,0.554875,0.136715
III,167,0.558217,0.146047
III,168,0.56156,0.146768
III,169,0.564903,0.136532
III,170,0.568245,0.124746
III,171,0.571588,0.121289
III,172,0.57493,0.125832
III,173,0.578273,0.130499
III,174,0.581616,0.128403
III,175,0.584958,0.118943
III,176,0.588301,0.11041
III,177,0.591643,0.113416
III,178,0.594986,0.127634
III,179,0.598329,0.141009
III,180,0.601671,0.143216
III,181,0.605014,0.134376
III,182,0.608357,0.122287
III,183,0.611699,0.115848
III,184,0.615042,0.116645
III,185,0.618384,0.116937
III,186,0.621727,0.110684
III,187,0.62507,0.100204
III,188,0.628412,0.091322
III,189,0.631755,0.088751
III,190,0.635097,0.093527
III,191,0.63844,0.101282
III,192,0.641783,0.10439
III,193,0.645125,0.099157
III,194,0.648468,0.090905
III,195,0.651811,0.088559
III,196,0.655153,0.095001
III,197,0.658496,0.103545
III,198,0.661838,0.104879
III,199,0.665181,0.098021
III,200,0.668524,0.090339
III,201,0.671866,0.088278
III,202,0.675209,0.091906
III,203,0.678552,0.095997
III,204,0.681894,0.09506
III,205,0.685237,0.088407
III,206,0.688579,0.08158
III,207,0.691922,0.081822
III,208,0.695265,0.088794
III,209,0.698607,0.094333
III,210,0.70195,0.092488
III,211,0.705292,0.082834
III,212,0.708635,0.070613
III,213,0.711978,0.064318
III,214,0.71532,0.065405
III,215,0.718663,0.068344
III,216,0.722006,0.069364
III,217,0.725348,0.06744
III,218,0.728691,0.063749
III,219,0.732033,0.062123
III,220,0.735376,0.064344
III,221,0.738719,0.066886
III,222,0.742061,0.065748
III,223,0.745404,0.060334
III,224,0.748747,0.052448
III,225,0.752089,0.047064
III,226,0.755432,0.049019
III,227,0.758774,0.055061
III,228,0.762117,0.058165
III,229,0.76546,0.057278
III,230,0.768802,0.053934
III,231,0.772145,0.047935
III,232,0.775487,0.041991
III,233,0.77883,0.039585
III,234,0.782173,0.03799
III,235,0.785515,0.033759
III,236,0.788858,0.028638
III,237,0.792201,0.024628
III,238,0.795543,0.022329
III,239,0.798886,0.021788
III,240,0.802228,0.020371
III,241,0.805571,0.016335
III,242,0.808914,0.011597
III,243,0.812256,0.007435
III,244,0.815599,0.004822
III,245,0.818942,0.006218
III,246,0.822284,0.011041
III,247,0.825627,0.015453
III,248,0.828969,0.017147
III,249,0.832312,0.017094
III,250,0.835655,0.018514
III,251,0.838997,0.019213
III,252,0.84234,0.011645
III,253,0.845682,-0.000469
III,254,0.849025,-0.006754
III,255,0.852368,-0.007797
III,256,0.85571,-0.00732
III,257,0.859053,-0.00654
III,258,0.862396,-0.009468
III,259,0.865738,-0.016621
III,260,0.869081,-0.022781
III,261,0.872423,-0.025043
III,262,0.875766,-0.024654
III,263,0.879109,-0.023791
III,264,0.882451,-0.024519
III,265,0.885794,-0.027561
III,266,0.889136,-0.031339
III,267,0.892479,-0.033699
III,268,0.895822,-0.033536
III,269,0.899164,-0.030765
III,270,0.902507,-0.026924
III,271,0.90585,-0.028007
III,272,0.909192,-0.038535
III,273,0.912535,-0.04928
III,274,0.915877,-0.048823
III,275,0.91922,-0.041092
III,276,0.922563,-0.035933
III,277,0.925905,-0.038403
III,278,0.929248,-0.048067
III,279,0.932591,-0.059031
III,280,0.935933,-0.065416
III,281,0.939276,-0.066707
III,282,0.942618,-0.066762
III,283,0.945961,-0.06713
III,284,0.949304,-0.063975
III,285,0.952646,-0.056478
III,286,0.955989,-0.047334
III,287,0.959331,-0.036476
III,288,0.962674,-0.030749
III,289,0.966017,-0.035833
III,290,0.969359,-0.04347
III,291,0.972702,-0.055174
III,292,0.976045,-0.072524
III,293,0.979387,-0.080026
III,294,0.98273,-0.079814
III,295,0.986072,-0.085614
III,296,0.989415,-0.096643
III,297,0.992758,-0.113393
III,298,0.9961,-0.130529
III,299,0.999443,-0.135754
III,300,1.002786,-0.138111
III,301,1.006128,-0.147057
III,302,1.009471,-0.151403
III,303,1.012813,-0.146486
III,304,1.016156,-0.137933
III,305,1.019499,-0.126868
III,306,1.022841,-0.116804
III,307,1.026184,-0.115137
III,308,1.029526,-0.122137
III,309,1.032869,-0.130332
III,310,1.036212,-0.131261
III,311,1.039554,-0.12348
III,312,1.042897,-0.115028
III,313,1.04624,-0.113959
III,314,1.049582,-0.121017
III,315,1.052925,-0.129573
III,316,1.056267,-0.130865
III,317,1.05961,-0.124618
III,318,1.062953,-0.119544
III,319,1.066295,-0.122455
III,320,1.069638,-0.1321
III,321,1.072981,-0.138754
III,322,1.076323,-0.129291
III,323,1.079666,-0.100858
III,324,1.083008,-0.065046
III,325,1.086351,-0.024801
III,326,1.089694,0.031704
III,327,1.093036,0.100111
III,328,1.096379,0.161221
III,329,1.099721,0.213845
III,330,1.103064,0.238129
III,331,1.106407,0.177668
III,332,1.109749,0.035922
III,333,1.113092,-0.147598
III,334,1.116435,-0.431551
III,335,1.119777,-0.859537
III,336,1.12312,-1.235627
III,337,1.126462,-1.355099
III,338,1.129805,-1.282856
III,339,1.133148,-1.116629
III,340,1.13649,-0.898624
III,341,1.139833,-0.704759
III,342,1.143175,-0.551974
III,343,1.146518,-0.42963
III,344,1.149861,-0.346436
III,345,1.153203,-0.288542
III,346,1.156546,-0.241674
III,347,1.159889,-0.2064
III,348,1.163231,-0.179405
III,349,1.166574,-0.162552
III,350,1.169916,-0.162662
III,351,1.173259,-0.169662
III,352,1.176602,-0.16767
III,353,1.179944,-0.155855
III,354,1.183287,-0.14319
III,355,1.18663,-0.136072
III,356,1.189972,-0.136478
III,357,1.193315,-0.142629
III,358,1.196657,-0.147669
III,359,1.2,-0.147149
III,360,1.203343,-0.144211
III,361,1.206685,-0.142735
III,362,1.210028,-0.142921
III,363,1.21337,-0.142701
III,364,1.216713,-0.139521
III,365,1.220056,-0.13273
III,366,1.223398,-0.12632
III,367,1.226741,-0.127287
III,368,1.230084,-0.136663
III,369,1.233426,-0.146418
III,370,1.236769,-0.149377
III,371,1.240111,-0.144883
III,372,1.243454,-0.136708
III,373,1.246797,-0.131576
III,374,1.250139,-0.132298
III,375,1.253482,-0.13328
III,376,1.256825,-0.130046
III,377,1.260167,-0.125851
III,378,1.26351,-0.12631
III,379,1.266852,-0.133073
III,380,1.270195,-0.141727
III,381,1.273538,-0.14683
III,382,1.27688,-0.147262
III,383,1.280223,-0.143204
III,384,1.283565,-0.135752
III,385,1.286908,-0.130239
III,386,1.290251,-0.130531
III,387,1.293593,-0.132766
III,388,1.296936,-0.131032
III,389,1.300279,-0.125617
III,390,1.303621,-0.122044
III,391,1.306964,-0.12476
III,392,1.310306,-0.132979
III,393,1.313649,-0.141067
III,394,1.316992,-0.143537
III,395,1.320334,-0.139883
III,396,1.323677,-0.134878
III,397,1.327019,-0.133146
III,398,1.330362,-0.132689
III,399,1.333705,-0.128571
III,400,1.337047,-0.120513
III,401,1.34039,-0.110824
III,402,1.343733,-0.101482
III,403,1.347075,-0.095888
III,404,1.350418,-0.09533
III,405,1.35376,-0.09469
III,406,1.357103,-0.088671
III,407,1.360446,-0.079325
III,408,1.363788,-0.072015
III,409,1.367131,-0.067914
III,410,1.370474,-0.06562
III,411,1.373816,-0.064859
III,412,1.377159,-0.064593
III,413,1.380501,-0.063619
III,414,1.383844,-0.062415
III,415,1.387187,-0.060377
III,416,1.390529,-0.055851
III,417,1.393872,-0.048582
III,418,1.397214,-0.042071
III,419,1.400557,-0.044041
III,420,1.4039,-0.055247
III,421,1.407242,-0.067011
III,422,1.410585,-0.077361
III,423,1.413928,-0.089572
III,424,1.41727,-0.100502
III,425,1.420613,-0.108907
III,426,1.423955,-0.12006
III,427,1.427298,-0.134976
III,428,1.430641,-0.150168
III,429,1.433983,-0.164004
III,430,1.437326,-0.174059
III,431,1.440669,-0.177472
III,432,1.444011,-0.176887
III,433,1.447354,-0.176891
III,434,1.450696,-0.17715
III,435,1.454039,-0.178668
III,436,1.457382,-0.185078
III,437,1.460724,-0.192112
III,438,1.464067,-0.19513
III,439,1.467409,-0.197852
III,440,1.470752,-0.200549
III,441,1.474095,-0.199175
III,442,1.477437,-0.194285
III,443,1.48078,-0.188571
III,444,1.484123,-0.183999
III,445,1.487465,-0.181283
III,446,1.490808,-0.182082
III,447,1.49415,-0.189362
III,448,1.497493,-0.196555
III,449,1.500836,-0.194873
III,450,1.504178,-0.189244
III,451,1.507521,-0.184969
III,452,1.510864,-0.181598
III,453,1.514206,-0.180259
III,454,1.517549,-0.180956
III,455,1.520891,-0.186842
III,456,1.524234,-0.195233
III,457,1.527577,-0.193749
III,458,1.530919,-0.184316
III,459,1.534262,-0.175894
III,460,1.537604,-0.167054
III,461,1.540947,-0.157206
III,462,1.54429,-0.150011
III,463,1.547632,-0.147632
III,464,1.550975,-0.149826
III,465,1.554318,-0.15362
III,466,1.55766,-0.154625
III,467,1.561003,-0.151005
III,468,1.564345,-0.146105
III,469,1.567688,-0.143431
III,470,1.571031,-0.14106
III,471,1.574373,-0.13704
III,472,1.577716,-0.133658
III,473,1.581058,-0.132034
III,474,1.584401,-0.131046
III,475,1.587744,-0.130416
III,476,1.591086,-0.130163
III,477,1.594429,-0.129933
III,478,1.597772,-0.128391
III,479,1.601114,-0.124472
III,480,1.604457,-0.119545
III,481,1.607799,-0.114813
III,482,1.611142,-0.11038
III,483,1.614485,-0.107863
III,484,1.617827,-0.10851
III,485,1.62117,-0.110983
III,486,1.624513,-0.113989
III,487,1.627855,-0.117135
III,488,1.631198,-0.118876
III,489,1.63454,-0.117944
III,490,1.637883,-0.1169
III,491,1.641226,-0.118983
III,492,1.644568,-0.121456
III,493,1.647911,-0.12147
III,494,1.651253,-0.122762
III,495,1.654596,-0.125655
III,496,1.657939,-0.124334
III,497,1.661281,-0.118969
III,498,1.664624,-0.115199
III,499,1.667967,-0.11419
III,500,1.671309,-0.113591
III,501,1.674652,-0.112546
III,502,1.677994,-0.111109
III,503,1.681337,-0.109409
III,504,1.68468,-0.107989
III,505,1.688022,-0.106775
III,506,1.691365,-0.105963
III,507,1.694708,-0.10726
III,508,1.69805,-0.109416
III,509,1.701393,-0.107669
III,510,1.704735,-0.102435
III,511,1.708078,-0.098881
III,512,1.711421,-0.097883
III,513,1.714763,-0.096907
III,514,1.718106,-0.09521
III,515,1.721448,-0.093367
III,516,1.724791,-0.091741
III,517,1.728134,-0.09051
III,518,1.731476,-0.089501
III,519,1.734819,-0.08805
III,520,1.738162,-0.086865
III,521,1.741504,-0.085036
III,522,1.744847,-0.08153
III,523,1.748189,-0.084402
III,524,1.751532,-0.094208
III,525,1.754875,-0.097212
III,526,1.758217,-0.091643
III,527,1.76156,-0.083623
III,528,1.764903,-0.073967
III,529,1.768245,-0.065925
III,530,1.771588,-0.062791
III,531,1.77493,-0.063772
III,532,1.778273,-0.065934
III,533,1.781616,-0.066064
III,534,1.784958,-0.063926
III,535,1.788301,-0.062255
III,536,1.791643,-0.063385
III,537,1.794986,-0.066001
III,538,1.798329,-0.066506
III,539,1.801671,-0.064375
III,540,1.805014,-0.061893
III,541,1.808357,-0.060205
III,542,1.811699,-0.059149
III,543,1.815042,-0.057898
III,544,1.818384,-0.056335
III,545,1.821727,-0.056124
III,546,1.82507,-0.057304
III,547,1.828412,-0.057806
III,548,1.831755,-0.05672
III,549,1.835097,-0.053363
III,550,1.83844,-0.047947
III,551,1.841783,-0.043138
III,552,1.845125,-0.040268
III,553,1.848468,-0.038544
III,554,1.851811,-0.037356
III,555,1.855153,-0.036404
III,556,1.858496,-0.036991
III,557,1.861838,-0.040229
III,558,1.865181,-0.043237
III,559,1.868524,-0.043636
III,560,1.871866,-0.042664
III,561,1.875209,-0.039367
III,562,1.878552,-0.03178
III,563,1.881894,-0.022728
III,564,1.885237,-0.015235
III,565,1.888579,-0.009158
III,566,1.891922,-0.006358
III,567,1.895265,-0.008582
III,568,1.898607,-0.011456
III,569,1.90195,-0.011932
III,570,1.905292,-0.013734
III,571,1.908635,-0.017627
III,572,1.911978,-0.019125
III,573,1.91532,-0.016293
III,574,1.918663,-0.010432
III,575,1.922006,-0.002857
III,576,1.925348,0.004655
III,577,1.928691,0.00867
III,578,1.932033,0.007448
III,579,1.935376,0.003942
III,580,1.938719,0.001598
III,581,1.942061,0.001057
III,582,1.945404,0.002737
III,583,1.948747,0.006914
III,584,1.952089,0.011339
III,585,1.955432,0.013965
III,586,1.958774,0.015976
III,587,1.962117,0.019489
III,588,1.96546,0.025775
III,589,1.968802,0.03383
III,590,1.972145,0.040121
III,591,1.975487,0.045038
III,592,1.97883,0.052916
III,593,1.982173,0.062836
III,594,1.985515,0.069297
III,595,1.988858,0.069072
III,596,1.992201,0.063274
III,597,1.995543,0.057225
III,598,1.998886,0.056955
III,599,2.002228,0.063666
III,600,2.005571,0.071319
III,601,2.008914,0.071245
III,602,2.012256,0.060366
III,603,2.015599,0.04368
III,604,2.018942,0.028694
III,605,2.022284,0.017743
III,606,2.025627,0.010102
III,607,2.028969,0.006334
III,608,2.032312,0.006212
III,609,2.035655,0.011014
III,610,2.038997,0.02265
III,611,2.04234,0.038725
III,612,2.045682,0.053608
III,613,2.049025,0.060608
III,614,2.052368,0.058051
III,615,2.05571,0.053064
III,616,2.059053,0.052886
III,617,2.062396,0.058133
III,618,2.065738,0.065571
III,619,2.069081,0.071597
III,620,2.072423,0.074759
III,621,2.075766,0.077288
III,622,2.079109,0.083664
III,623,2.082451,0.095634
III,624,2.085794,0.106829
III,625,2.089136,0.109425
III,626,2.092479,0.103873
III,627,2.095822,0.096597
III,628,2.099164,0.101124
III,629,2.102507,0.128864
III,630,2.10585,0.165057
III,631,2.109192,0.196488
III,632,2.112535,0.247122
III,633,2.115877,0.319067
III,634,2.11922,0.374605
III,635,2.122563,0.422381
III,636,2.125905,0.452455
III,637,2.129248,0.386461
III,638,2.132591,0.25253
III,639,2.135933,0.095616
III,640,2.139276,-0.200177
III,641,2.142618,-0.651544
III,642,2.145961,-0.996687
III,643,2.149304,-1.067234
III,644,2.152646,-1.026152
III,645,2.155989,-0.94397
III,646,2.159331,-0.722851
III,647,2.162674,-0.476597
III,648,2.166017,-0.33439
III,649,2.169359,-0.228664
III,650,2.172702,-0.122719
III,651,2.176045,-0.04909
III,652,2.179387,-0.001526
III,653,2.18273,0.038671
III,654,2.186072,0.071144
III,655,2.189415,0.09158
III,656,2.192758,0.10121
III,657,2.1961,0.104673
III,658,2.199443,0.106218
III,659,2.202786,0.110826
III,660,2.206128,0.119049
III,661,2.209471,0.125733
III,662,2.212813,0.128622
III,663,2.216156,0.129487
III,664,2.219499,0.130455
III,665,2.222841,0.132545
III,666,2.226184,0.1341
III,667,2.229526,0.132271
III,668,2.232869,0.12681
III,669,2.236212,0.121934
III,670,2.239554,0.123113
III,671,2.242897,0.127778
III,672,2.24624,0.126645
III,673,2.249582,0.116874
III,674,2.252925,0.103971
III,675,2.256267,0.094864
III,676,2.25961,0.092619
III,677,2.262953,0.094124
III,678,2.266295,0.094373
III,679,2.269638,0.091784
III,680,2.272981,0.088863
III,681,2.276323,0.087953
III,682,2.279666,0.088387
III,683,2.283008,0.089261
III,684,2.286351,0.08882
III,685,2.289694,0.083815
III,686,2.293036,0.074743
III,687,2.296379,0.065543
III,688,2.299721,0.059909
III,689,2.303064,0.060203
III,690,2.306407,0.063151
III,691,2.309749,0.062119
III,692,2.313092,0.05688
III,693,2.316435,0.052028
III,694,2.319777,0.050034
III,695,2.32312,0.051986
III,696,2.326462,0.056945
III,697,2.329805,0.059075
III,698,2.333148,0.053746
III,699,2.33649,0.045064
III,700,2.339833,0.040688
III,701,2.343175,0.041993
III,702,2.346518,0.044385
III,703,2.349861,0.044612
III,704,2.353203,0.042882
III,705,2.356546,0.039992
III,706,2.359889,0.037653
III,707,2.363231,0.038609
III,708,2.366574,0.042608
III,709,2.369916,0.046365
III,710,2.373259,0.048775
III,711,2.376602,0.051888
III,712,2.379944,0.057237
III,713,2.383287,0.064108
III,714,2.38663,0.069666
III,715,2.389972,0.071033
III,716,2.393315,0.069195
III,717,2.396657,0.067146
aVR,0,0.0,-0.070928
aVR,1,0.003343,-0.074717
aVR,2,0.006685,-0.082592
aVR,3,0.010028,-0.079671
aVR,4,0.01337,-0.070563
aVR,5,0.016713,-0.068059
aVR,6,0.020056,-0.073352
aVR,7,0.023398,-0.083916
aVR,8,0.026741,-0.093609
aVR,9,0.030084,-0.102199
aVR,10,0.033426,-0.111295
aVR,11,0.036769,-0.115741
aVR,12,0.040111,-0.113297
aVR,13,0.043454,-0.106175
aVR,14,0.046797,-0.096817
aVR,15,0.050139,-0.085849
aVR,16,0.053482,-0.074772
aVR,17,0.056825,-0.068543
aVR,18,0.060167,-0.068273
aVR,19,0.06351,-0.069259
aVR,20,0.066852,-0.066306
aVR,21,0.070195,-0.058691
aVR,22,0.073538,-0.051925
aVR,23,0.07688,-0.04963
aVR,24,0.080223,-0.051738
aVR,25,0.083565,-0.059418
aVR,26,0.086908,-0.066635
aVR,27,0.090251,-0.063422
aVR,28,0.093593,-0.052869
aVR,29,0.096936,-0.043196
aVR,30,0.100279,-0.035689
aVR,31,0.103621,-0.031622
aVR,32,0.106964,-0.032346
aVR,33,0.110306,-0.035584
aVR,34,0.113649,-0.040896
aVR,35,0.116992,-0.047713
aVR,36,0.120334,-0.053104
aVR,37,0.123677,-0.056387
aVR,38,0.127019,-0.055544
aVR,39,0.130362,-0.046299
aVR,40,0.133705,-0.029723
aVR,41,0.137047,-0.012226
aVR,42,0.14039,0.000591
aVR,43,0.143733,0.007071
aVR,44,0.147075,0.010396
aVR,45,0.150418,0.014845
aVR,46,0.15376,0.018841
aVR,47,0.157103,0.017692
aVR,48,0.160446,0.012744
aVR,49,0.163788,0.010175
aVR,50,0.167131,0.01265
aVR,51,0.170474,0.018001
aVR,52,0.173816,0.022014
aVR,53,0.177159,0.02065
aVR,54,0.180501,0.015452
aVR,55,0.183844,0.012324
aVR,56,0.187187,0.012771
aVR,57,0.190529,0.014711
aVR,58,0.193872,0.016918
aVR,59,0.197214,0.017529
aVR,60,0.200557,0.015431
aVR,61,0.2039,0.013657
aVR,62,0.207242,0.017187
aVR,63,0.210585,0.022203
aVR,64,0.213928,0.017355
aVR,65,0.21727,0.005756
aVR,66,0.220613,7.8e-05
aVR,67,0.223955,-9.5e-05
aVR,68,0.227298,6.5e-05
aVR,69,0.230641,0.000579
aVR,70,0.233983,-0.000173
aVR,71,0.237326,-0.004689
aVR,72,0.240669,-0.008747
aVR,73,0.244011,-0.005121
aVR,74,0.247354,0.006939
aVR,75,0.250696,0.022416
aVR,76,0.254039,0.03529
aVR,77,0.257382,0.039795
aVR,78,0.260724,0.03105
aVR,79,0.264067,0.016009
aVR,80,0.267409,0.00917
aVR,81,0.270752,0.009436
aVR,82,0.274095,0.009233
aVR,83,0.277437,0.009054
aVR,84,0.28078,0.010324
aVR,85,0.284123,0.015319
aVR,86,0.287465,0.026322
aVR,87,0.290808,0.039877
aVR,88,0.29415,0.049733
aVR,89,0.297493,0.052694
aVR,90,0.300836,0.048858
aVR,91,0.304178,0.041407
aVR,92,0.307521,0.037489
aVR,93,0.310864,0.041924
aVR,94,0.314206,0.049831
aVR,95,0.317549,0.052489
aVR,96,0.320891,0.047999
aVR,97,0.324234,0.041786
aVR,98,0.327577,0.040229
aVR,99,0.330919,0.043153
aVR,100,0.334262,0.043032
aVR,101,0.337604,0.035214
aVR,102,0.340947,0.023848
aVR,103,0.34429,0.018651
aVR,104,0.347632,0.027509
aVR,105,0.350975,0.046703
aVR,106,0.354318,0.064454
aVR,107,0.35766,0.071818
aVR,108,0.361003,0.06528
aVR,109,0.364345,0.052481
aVR,110,0.367688,0.047585
aVR,111,0.371031,0.05144
aVR,112,0.374373,0.054513
aVR,113,0.377716,0.053912
aVR,114,0.381058,0.05272
aVR,115,0.384401,0.055809
aVR,116,0.387744,0.067928
aVR,117,0.391086,0.08392
aVR,118,0.394429,0.090542
aVR,119,0.397772,0.083259
aVR,120,0.401114,0.070426
aVR,121,0.404457,0.063847
aVR,122,0.407799,0.069289
aVR,123,0.411142,0.080268
aVR,124,0.414485,0.083104
aVR,125,0.417827,0.071471
aVR,126,0.42117,0.053179
aVR,127,0.424513,0.044166
aVR,128,0.427855,0.05487
aVR,129,0.431198,0.078633
aVR,130,0.43454,0.098512
aVR,131,0.437883,0.103325
aVR,132,0.441226,0.092042
aVR,133,0.444568,0.07497
aVR,134,0.447911,0.068336
aVR,135,0.451253,0.071412
aVR,136,0.454596,0.067057
aVR,137,0.457939,0.053021
aVR,138,0.461281,0.042876
aVR,139,0.464624,0.045075
aVR,140,0.467967,0.062645
aVR,141,0.471309,0.089627
aVR,142,0.474652,0.10701
aVR,143,0.477994,0.102229
aVR,144,0.481337,0.083318
aVR,145,0.48468,0.069899
aVR,146,0.488022,0.068587
aVR,147,0.491365,0.073393
aVR,148,0.494708,0.077874
aVR,149,0.49805,0.039301
aVR,150,0.501393,0.010827
aVR,151,0.504735,0.041992
aVR,152,0.508078,-0.110847
aVR,153,0.511421,-0.496661
aVR,154,0.514763,-0.749209
aVR,155,0.518106,-0.578834
aVR,156,0.521448,-0.156066
aVR,157,0.524791,0.026519
aVR,158,0.528134,-0.022274
aVR,159,0.531476,0.002681
aVR,160,0.534819,0.037575
aVR,161,0.538162,0.015967
aVR,162,0.541504,-0.009046
aVR,163,0.544847,-0.027229
aVR,164,0.548189,-0.017647
aVR,165,0.551532,0.023283
aVR,166,0.554875,0.062132
aVR,167,0.558217,0.078175
aVR,168,0.56156,0.083747
aVR,169,0.564903,0.09292
aVR,170,0.568245,0.10587
aVR,171,0.571588,0.118551
aVR,172,0.57493,0.122925
aVR,173,0.578273,0.113658
aVR,174,0.581616,0.098895
aVR,175,0.584958,0.092484
aVR,176,0.588301,0.100025
aVR,177,0.591643,0.114172
aVR,178,0.594986,0.123164
aVR,179,0.598329,0.121998
aVR,180,0.601671,0.11496
aVR,181,0.605014,0.111479
aVR,182,0.608357,0.116166
aVR,183,0.611699,0.122942
aVR,184,0.615042,0.12299
aVR,185,0.618384,0.114603
aVR,186,0.621727,0.105464
aVR,187,0.62507,0.106562
aVR,188,0.628412,0.120165
aVR,189,0.631755,0.139162
aVR,190,0.635097,0.150992
aVR,191,0.63844,0.141451
aVR,192,0.641783,0.114895
aVR,193,0.645125,0.083484
aVR,194,0.648468,0.029061
aVR,195,0.651811,-0.085588
aVR,196,0.655153,-0.286396
aVR,197,0.658496,-0.547062
aVR,198,0.661838,-0.758211
aVR,199,0.665181,-0.832589
aVR,200,0.668524,-0.782267
aVR,201,0.671866,-0.632704
aVR,202,0.675209,-0.396976
aVR,203,0.678552,-0.133091
aVR,204,0.681894,0.054744
aVR,205,0.685237,0.130741
aVR,206,0.688579,0.167872
aVR,207,0.691922,0.194781
aVR,208,0.695265,0.187225
aVR,209,0.698607,0.164704
aVR,210,0.70195,0.148459
aVR,211,0.705292,0.139241
aVR,212,0.708635,0.140538
aVR,213,0.711978,0.14773
aVR,214,0.71532,0.152023
aVR,215,0.718663,0.150675
aVR,216,0.722006,0.144445
aVR,217,0.725348,0.139616
aVR,218,0.728691,0.141409
aVR,219,0.732033,0.144094
aVR,220,0.735376,0.141836
aVR,221,0.738719,0.136182
aVR,222,0.742061,0.128902
aVR,223,0.745404,0.123617
aVR,224,0.748747,0.125238
aVR,225,0.752089,0.13091
aVR,226,0.755432,0.131689
aVR,227,0.758774,0.12348
aVR,228,0.762117,0.111213
aVR,229,0.76546,0.102228
aVR,230,0.768802,0.101914
aVR,231,0.772145,0.11082
aVR,232,0.775487,0.121462
aVR,233,0.77883,0.128449
aVR,234,0.782173,0.134877
aVR,235,0.785515,0.142048
aVR,236,0.788858,0.147778
aVR,237,0.792201,0.151728
aVR,238,0.795543,0.152543
aVR,239,0.798886,0.149354
aVR,240,0.802228,0.145238
aVR,241,0.805571,0.141333
aVR,242,0.808914,0.138592
aVR,243,0.812256,0.138517
aVR,244,0.815599,0.132716
aVR,245,0.818942,0.119273
aVR,246,0.822284,0.111525
aVR,247,0.825627,0.111471
aVR,248,0.828969,0.113318
aVR,249,0.832312,0.116712
aVR,250,0.835655,0.118073
aVR,251,0.838997,0.115007
aVR,252,0.84234,0.111593
aVR,253,0.845682,0.110463
aVR,254,0.849025,0.108168
aVR,255,0.852368,0.101761
aVR,256,0.85571,0.094602
aVR,257,0.859053,0.089578
aVR,258,0.862396,0.086703
aVR,259,0.865738,0.087707
aVR,260,0.869081,0.092673
aVR,261,0.872423,0.099962
aVR,262,0.875766,0.108907
aVR,263,0.879109,0.11755
aVR,264,0.882451,0.125991
aVR,265,0.885794,0.133246
aVR,266,0.889136,0.137535
aVR,267,0.892479,0.139834
aVR,268,0.895822,0.129643
aVR,269,0.899164,0.106255
aVR,270,0.902507,0.090619
aVR,271,0.90585,0.08243
aVR,272,0.909192,0.071176
aVR,273,0.912535,0.063564
aVR,274,0.915877,0.061732
aVR,275,0.91922,0.059986
aVR,276,0.922563,0.057611
aVR,277,0.925905,0.056648
aVR,278,0.929248,0.057666
aVR,279,0.932591,0.059176
aVR,280,0.935933,0.058947
aVR,281,0.939276,0.057694
aVR,282,0.942618,0.055698
aVR,283,0.945961,0.047458
aVR,284,0.949304,0.034318
aVR,285,0.952646,0.025661
aVR,286,0.955989,0.020704
aVR,287,0.959331,0.016457
aVR,288,0.962674,0.01842
aVR,289,0.966017,0.027644
aVR,290,0.969359,0.038261
aVR,291,0.972702,0.048225
aVR,292,0.976045,0.055273
aVR,293,0.979387,0.048516
aVR,294,0.98273,0.033233
aVR,295,0.986072,0.032634
aVR,296,0.989415,0.04506
aVR,297,0.992758,0.054994
aVR,298,0.9961,0.061223
aVR,299,0.999443,0.06248
aVR,300,1.002786,0.058054
aVR,301,1.006128,0.05467
aVR,302,1.009471,0.05486
aVR,303,1.012813,0.055421
aVR,304,1.016156,0.055011
aVR,305,1.019499,0.054507
aVR,306,1.022841,0.052404
aVR,307,1.026184,0.049604
aVR,308,1.029526,0.048792
aVR,309,1.032869,0.040495
aVR,310,1.036212,0.024506
aVR,311,1.039554,0.020553
aVR,312,1.042897,0.02993
aVR,313,1.04624,0.040017
aVR,314,1.049582,0.050003
aVR,315,1.052925,0.05996
aVR,316,1.056267,0.066131
aVR,317,1.05961,0.069593
aVR,318,1.062953,0.074884
aVR,319,1.066295,0.083569
aVR,320,1.069638,0.094331
aVR,321,1.072981,0.102973
aVR,322,1.076323,0.103531
aVR,323,1.079666,0.09525
aVR,324,1.083008,0.082452
aVR,325,1.086351,0.069136
aVR,326,1.089694,0.057649
aVR,327,1.093036,0.050967
aVR,328,1.096379,0.05145
aVR,329,1.099721,0.056913
aVR,330,1.103064,0.063728
aVR,331,1.106407,0.068658
aVR,332,1.109749,0.068503
aVR,333,1.113092,0.064653
aVR,334,1.116435,0.061975
aVR,335,1.119777,0.0632
aVR,336,1.12312,0.068161
aVR,337,1.126462,0.075167
aVR,338,1.129805,0.082992
aVR,339,1.133148,0.088602
aVR,340,1.13649,0.084952
aVR,341,1.139833,0.072586
aVR,342,1.143175,0.060665
aVR,343,1.146518,0.051145
aVR,344,1.149861,0.043094
aVR,345,1.153203,0.039646
aVR,346,1.156546,0.039316
aVR,347,1.159889,0.038606
aVR,348,1.163231,0.037664
aVR,349,1.166574,0.037369
aVR,350,1.169916,0.039029
aVR,351,1.173259,0.042482
aVR,352,1.176602,0.043242
aVR,353,1.179944,0.038215
aVR,354,1.183287,0.030348
aVR,355,1.18663,0.022962
aVR,356,1.189972,0.01766
aVR,357,1.193315,0.018004
aVR,358,1.196657,0.023876
aVR,359,1.2,0.031153
aVR,360,1.203343,0.04088
aVR,361,1.206685,0.050652
aVR,362,1.210028,0.052065
aVR,363,1.21337,0.047009
aVR,364,1.216713,0.044024
aVR,365,1.220056,0.045782
aVR,366,1.223398,0.048284
aVR,367,1.226741,0.049936
aVR,368,1.230084,0.052333
aVR,369,1.233426,0.045005
aVR,370,1.236769,0.026473
aVR,371,1.240111,0.016064
aVR,372,1.243454,0.016311
aVR,373,1.246797,0.018082
aVR,374,1.250139,0.020716
aVR,375,1.253482,0.022345
aVR,376,1.256825,0.023512
aVR,377,1.260167,0.026004
aVR,378,1.26351,0.025896
aVR,379,1.266852,0.022276
aVR,380,1.270195,0.019695
aVR,381,1.273538,0.020783
aVR,382,1.27688,0.02531
aVR,383,1.280223,0.032437
aVR,384,1.283565,0.03997
aVR,385,1.286908,0.045937
aVR,386,1.290251,0.05009
aVR,387,1.293593,0.049689
aVR,388,1.296936,0.042375
aVR,389,1.300279,0.032608
aVR,390,1.303621,0.025379
aVR,391,1.306964,0.021667
aVR,392,1.310306,0.020531
aVR,393,1.313649,0.019761
aVR,394,1.316992,0.018017
aVR,395,1.320334,0.015063
aVR,396,1.323677,0.011839
aVR,397,1.327019,0.010063
aVR,398,1.330362,0.009669
aVR,399,1.333705,0.010585
aVR,400,1.337047,0.01228
aVR,401,1.34039,0.011589
aVR,402,1.343733,0.006452
aVR,403,1.347075,0.000258
aVR,404,1.350418,0.002006
aVR,405,1.35376,0.014037
aVR,406,1.357103,0.02783
aVR,407,1.360446,0.039505
aVR,408,1.363788,0.044662
aVR,409,1.367131,0.034901
aVR,410,1.370474,0.018038
aVR,411,1.373816,0.006436
aVR,412,1.377159,-0.002335
aVR,413,1.380501,-0.008036
aVR,414,1.383844,-0.003905
aVR,415,1.387187,0.007078
aVR,416,1.390529,0.016918
aVR,417,1.393872,0.024265
aVR,418,1.397214,0.028947
aVR,419,1.400557,0.024375
aVR,420,1.4039,0.012028
aVR,421,1.407242,0.003575
aVR,422,1.410585,-0.000718
aVR,423,1.413928,-0.005022
aVR,424,1.41727,-0.006899
aVR,425,1.420613,-0.007766
aVR,426,1.423955,-0.011303
aVR,427,1.427298,-0.017423
aVR,428,1.430641,-0.025221
aVR,429,1.433983,-0.031569
aVR,430,1.437326,-0.028676
aVR,431,1.440669,-0.013214
aVR,432,1.444011,0.00724
aVR,433,1.447354,0.026293
aVR,434,1.450696,0.04276
aVR,435,1.454039,0.047772
aVR,436,1.457382,0.041598
aVR,437,1.460724,0.03821
aVR,438,1.464067,0.027996
aVR,439,1.467409,0.007311
aVR,440,1.470752,-0.00027
aVR,441,1.474095,0.002128
aVR,442,1.477437,-0.000282
aVR,443,1.48078,-0.003573
aVR,444,1.484123,-0.007194
aVR,445,1.487465,-0.011814
aVR,446,1.490808,-0.014565
aVR,447,1.49415,-0.018536
aVR,448,1.497493,-0.025433
aVR,449,1.500836,-0.032296
aVR,450,1.504178,-0.042316
aVR,451,1.507521,-0.056286
aVR,452,1.510864,-0.066456
aVR,453,1.514206,-0.070747
aVR,454,1.517549,-0.077186
aVR,455,1.520891,-0.093909
aVR,456,1.524234,-0.109366
aVR,457,1.527577,-0.106658
aVR,458,1.530919,-0.095381
aVR,459,1.534262,-0.088787
aVR,460,1.537604,-0.08391
aVR,461,1.540947,-0.079607
aVR,462,1.54429,-0.077352
aVR,463,1.547632,-0.074765
aVR,464,1.550975,-0.071861
aVR,465,1.554318,-0.069819
aVR,466,1.55766,-0.067953
aVR,467,1.561003,-0.068145
aVR,468,1.564345,-0.072149
aVR,469,1.567688,-0.077049
aVR,470,1.571031,-0.079988
aVR,471,1.574373,-0.080092
aVR,472,1.577716,-0.075924
aVR,473,1.581058,-0.068213
aVR,474,1.584401,-0.060956
aVR,475,1.587744,-0.055792
aVR,476,1.591086,-0.050876
aVR,477,1.594429,-0.045277
aVR,478,1.597772,-0.038958
aVR,479,1.601114,-0.031153
aVR,480,1.604457,-0.021824
aVR,481,1.607799,-0.013026
aVR,482,1.611142,-0.008232
aVR,483,1.614485,-0.008089
aVR,484,1.617827,-0.007713
aVR,485,1.62117,-0.001762
aVR,486,1.624513,0.007856
aVR,487,1.627855,0.011629
aVR,488,1.631198,0.005035
aVR,489,1.63454,-0.006046
aVR,490,1.637883,-0.016851
aVR,491,1.641226,-0.024296
aVR,492,1.644568,-0.025498
aVR,493,1.647911,-0.02501
aVR,494,1.651253,-0.022796
aVR,495,1.654596,-0.019939
aVR,496,1.657939,-0.028651
aVR,497,1.661281,-0.0405
aVR,498,1.664624,-0.064274
aVR,499,1.667967,-0.175368
aVR,500,1.671309,-0.385974
aVR,501,1.674652,-0.595697
aVR,502,1.677994,-0.773853
aVR,503,1.681337,-0.943641
aVR,504,1.68468,-1.026324
aVR,505,1.688022,-0.926786
aVR,506,1.691365,-0.696662
aVR,507,1.694708,-0.449319
aVR,508,1.69805,-0.213497
aVR,509,1.701393,-0.044025
aVR,510,1.704735,0.01488
aVR,511,1.708078,0.029597
aVR,512,1.711421,0.020561
aVR,513,1.714763,-0.010741
aVR,514,1.718106,-0.023774
aVR,515,1.721448,-0.02391
aVR,516,1.724791,-0.020976
aVR,517,1.728134,-0.008854
aVR,518,1.731476,0.001711
aVR,519,1.734819,0.009256
aVR,520,1.738162,0.01773
aVR,521,1.741504,0.022439
aVR,522,1.744847,0.02361
aVR,523,1.748189,0.019669
aVR,524,1.751532,0.00945
aVR,525,1.754875,0.002862
aVR,526,1.758217,0.000849
aVR,527,1.76156,-0.006005
aVR,528,1.764903,-0.013745
aVR,529,1.768245,-0.022213
aVR,530,1.771588,-0.03639
aVR,531,1.77493,-0.043825
aVR,532,1.778273,-0.041195
aVR,533,1.781616,-0.036705
aVR,534,1.784958,-0.028897
aVR,535,1.788301,-0.018345
aVR,536,1.791643,-0.010908
aVR,537,1.794986,-0.009635
aVR,538,1.798329,-0.010717
aVR,539,1.801671,-0.008307
aVR,540,1.805014,-0.003382
aVR,541,1.808357,-0.000313
aVR,542,1.811699,-0.000683
aVR,543,1.815042,-0.004113
aVR,544,1.818384,-0.008457
aVR,545,1.821727,-0.010162
aVR,546,1.82507,-0.009048
aVR,547,1.828412,-0.008188
aVR,548,1.831755,-0.008364
aVR,549,1.835097,-0.007554
aVR,550,1.83844,-0.004289
aVR,551,1.841783,6.7e-05
aVR,552,1.845125,0.002643
aVR,553,1.848468,0.003238
aVR,554,1.851811,-0.000592
aVR,555,1.855153,-0.013214
aVR,556,1.858496,-0.026937
aVR,557,1.861838,-0.034203
aVR,558,1.865181,-0.040677
aVR,559,1.868524,-0.046115
aVR,560,1.871866,-0.044773
aVR,561,1.875209,-0.03925
aVR,562,1.878552,-0.034185
aVR,563,1.881894,-0.031756
aVR,564,1.885237,-0.032656
aVR,565,1.888579,-0.035611
aVR,566,1.891922,-0.038002
aVR,567,1.895265,-0.035896
aVR,568,1.898607,-0.028263
aVR,569,1.90195,-0.018811
aVR,570,1.905292,-0.009072
aVR,571,1.908635,0.000488
aVR,572,1.911978,0.00253
aVR,573,1.91532,-0.008498
aVR,574,1.918663,-0.022857
aVR,575,1.922006,-0.03035
aVR,576,1.925348,-0.03549
aVR,577,1.928691,-0.043017
aVR,578,1.932033,-0.050832
aVR,579,1.935376,-0.056807
aVR,580,1.938719,-0.059408
aVR,581,1.942061,-0.056829
aVR,582,1.945404,-0.049335
aVR,583,1.948747,-0.044134
aVR,584,1.952089,-0.048218
aVR,585,1.955432,-0.057544
aVR,586,1.958774,-0.064868
aVR,587,1.962117,-0.072405
aVR,588,1.96546,-0.086304
aVR,589,1.968802,-0.099635
aVR,590,1.972145,-0.102936
aVR,591,1.975487,-0.101527
aVR,592,1.97883,-0.099867
aVR,593,1.982173,-0.094502
aVR,594,1.985515,-0.083543
aVR,595,1.988858,-0.070308
aVR,596,1.992201,-0.059874
aVR,597,1.995543,-0.051777
aVR,598,1.998886,-0.048489
aVR,599,2.002228,-0.054245
aVR,600,2.005571,-0.062772
aVR,601,2.008914,-0.068857
aVR,602,2.012256,-0.072491
aVR,603,2.015599,-0.071633
aVR,604,2.018942,-0.067625
aVR,605,2.022284,-0.065
aVR,606,2.025627,-0.065622
aVR,607,2.028969,-0.068317
aVR,608,2.032312,-0.069975
aVR,609,2.035655,-0.068302
aVR,610,2.038997,-0.064656
aVR,611,2.04234,-0.061842
aVR,612,2.045682,-0.060314
aVR,613,2.049025,-0.059384
aVR,614,2.052368,-0.058919
aVR,615,2.05571,-0.05902
aVR,616,2.059053,-0.05969
aVR,617,2.062396,-0.057639
aVR,618,2.065738,-0.049454
aVR,619,2.069081,-0.037606
aVR,620,2.072423,-0.025549
aVR,621,2.075766,-0.014255
aVR,622,2.079109,-0.007001
aVR,623,2.082451,-0.010045
aVR,624,2.085794,-0.01933
aVR,625,2.089136,-0.02209
aVR,626,2.092479,-0.017805
aVR,627,2.095822,-0.012281
aVR,628,2.099164,-0.006681
aVR,629,2.102507,-0.00331
aVR,630,2.10585,-0.00424
aVR,631,2.109192,-0.008756
aVR,632,2.112535,-0.013864
aVR,633,2.115877,-0.015967
aVR,634,2.11922,-0.013509
aVR,635,2.122563,-0.006784
aVR,636,2.125905,0.000423
aVR,637,2.129248,0.001231
aVR,638,2.132591,-0.006481
aVR,639,2.135933,-0.015431
aVR,640,2.139276,-0.020432
aVR,641,2.142618,-0.027829
aVR,642,2.145961,-0.037181
aVR,643,2.149304,-0.037574
aVR,644,2.152646,-0.029347
aVR,645,2.155989,-0.018652
aVR,646,2.159331,-0.00704
aVR,647,2.162674,0.004699
aVR,648,2.166017,0.015543
aVR,649,2.169359,0.020794
aVR,650,2.172702,0.017848
aVR,651,2.176045,0.0109
aVR,652,2.179387,0.002637
aVR,653,2.18273,-0.004271
aVR,654,2.186072,-0.00577
aVR,655,2.189415,-0.004407
aVR,656,2.192758,-0.005521
aVR,657,2.1961,-0.008783
aVR,658,2.199443,-0.009735
aVR,659,2.202786,-0.006621
aVR,660,2.206128,-0.003964
aVR,661,2.209471,-0.005114
aVR,662,2.212813,-0.007531
aVR,663,2.216156,-0.010203
aVR,664,2.219499,-0.013765
aVR,665,2.222841,-0.015945
aVR,666,2.226184,-0.015804
aVR,667,2.229526,-0.015619
aVR,668,2.232869,-0.018031
aVR,669,2.236212,-0.024165
aVR,670,2.239554,-0.032
aVR,671,2.242897,-0.038121
aVR,672,2.24624,-0.039657
aVR,673,2.249582,-0.034862
aVR,674,2.252925,-0.025842
aVR,675,2.256267,-0.015542
aVR,676,2.25961,-0.004542
aVR,677,2.262953,0.003941
aVR,678,2.266295,0.006703
aVR,679,2.269638,0.00642
aVR,680,2.272981,0.00616
aVR,681,2.276323,0.005948
aVR,682,2.279666,0.005542
aVR,683,2.283008,0.005558
aVR,684,2.286351,0.006018
aVR,685,2.289694,0.003192
aVR,686,2.293036,-0.00526
aVR,687,2.296379,-0.013665
aVR,688,2.299721,-0.017652
aVR,689,2.303064,-0.018864
aVR,690,2.306407,-0.015971
aVR,691,2.309749,-0.008121
aVR,692,2.313092,0.000696
aVR,693,2.316435,0.00951
aVR,694,2.319777,0.0169
aVR,695,2.32312,0.01797
aVR,696,2.326462,0.011869
aVR,697,2.329805,-0.000383
aVR,698,2.333148,-0.015461
aVR,699,2.33649,-0.025831
aVR,700,2.339833,-0.02878
aVR,701,2.343175,-0.025588
aVR,702,2.346518,-0.017715
aVR,703,2.349861,-0.0088
aVR,704,2.353203,8.9e-05
aVR,705,2.356546,0.007503
aVR,706,2.359889,0.007962
aVR,707,2.363231,0.001998
aVR,708,2.366574,-0.003794
aVR,709,2.369916,-0.005923
aVR,710,2.373259,-0.004259
aVR,711,2.376602,0.001033
aVR,712,2.379944,0.008869
aVR,713,2.383287,0.014313
aVR,714,2.38663,0.014066
aVR,715,2.389972,0.012569
aVR,716,2.393315,0.006615
aVR,717,2.396657,-0.011851
aVL,0,0.0,-0.551263
aVL,1,0.003343,0.255972
aVL,2,0.006685,0.340433
aVL,3,0.010028,0.241623
aVL,4,0.01337,0.295576
aVL,5,0.016713,0.298719
aVL,6,0.020056,0.263335
aVL,7,0.023398,0.253077
aVL,8,0.026741,0.258754
aVL,9,0.030084,0.285056
aVL,10,0.033426,0.312943
aVL,11,0.036769,0.317322
aVL,12,0.040111,0.30141
aVL,13,0.043454,0.287034
aVL,14,0.046797,0.290473
aVL,15,0.050139,0.308753
aVL,16,0.053482,0.323435
aVL,17,0.056825,0.319067
aVL,18,0.060167,0.299608
aVL,19,0.06351,0.282734
aVL,20,0.066852,0.280636
aVL,21,0.070195,0.291279
aVL,22,0.073538,0.301953
aVL,23,0.07688,0.29948
aVL,24,0.080223,0.28307
aVL,25,0.083565,0.266692
aVL,26,0.086908,0.264614
aVL,27,0.090251,0.275168
aVL,28,0.093593,0.282554
aVL,29,0.096936,0.273568
aVL,30,0.100279,0.251215
aVL,31,0.103621,0.232365
aVL,32,0.106964,0.230106
aVL,33,0.110306,0.241575
aVL,34,0.113649,0.253059
aVL,35,0.116992,0.251884
aVL,36,0.120334,0.238799
aVL,37,0.123677,0.227772
aVL,38,0.127019,0.226666
aVL,39,0.130362,0.229726
aVL,40,0.133705,0.227072
aVL,41,0.137047,0.210007
aVL,42,0.14039,0.18245
aVL,43,0.143733,0.162807
aVL,44,0.147075,0.16084
aVL,45,0.150418,0.169865
aVL,46,0.15376,0.178582
aVL,47,0.157103,0.177224
aVL,48,0.160446,0.164802
aVL,49,0.163788,0.151875
aVL,50,0.167131,0.147883
aVL,51,0.170474,0.151822
aVL,52,0.173816,0.155327
aVL,53,0.177159,0.150162
aVL,54,0.180501,0.136932
aVL,55,0.183844,0.125084
aVL,56,0.187187,0.123283
aVL,57,0.190529,0.131892
aVL,58,0.193872,0.140102
aVL,59,0.197214,0.135148
aVL,60,0.200557,0.119056
aVL,61,0.2039,0.105842
aVL,62,0.207242,0.104226
aVL,63,0.210585,0.112069
aVL,64,0.213928,0.119557
aVL,65,0.21727,0.116469
aVL,66,0.220613,0.105195
aVL,67,0.223955,0.098453
aVL,68,0.227298,0.100706
aVL,69,0.230641,0.106534
aVL,70,0.233983,0.111161
aVL,71,0.237326,0.110221
aVL,72,0.240669,0.101404
aVL,73,0.244011,0.090161
aVL,74,0.247354,0.084829
aVL,75,0.250696,0.086728
aVL,76,0.254039,0.089218
aVL,77,0.257382,0.086609
aVL,78,0.260724,0.080256
aVL,79,0.264067,0.075916
aVL,80,0.267409,0.078064
aVL,81,0.270752,0.085722
aVL,82,0.274095,0.091477
aVL,83,0.277437,0.086581
aVL,84,0.28078,0.07175
aVL,85,0.284123,0.057893
aVL,86,0.287465,0.051977
aVL,87,0.290808,0.051226
aVL,88,0.29415,0.050652
aVL,89,0.297493,0.048155
aVL,90,0.300836,0.045471
aVL,91,0.304178,0.04602
aVL,92,0.307521,0.050126
aVL,93,0.310864,0.054817
aVL,94,0.314206,0.05585
aVL,95,0.317549,0.049244
aVL,96,0.320891,0.037732
aVL,97,0.324234,0.030816
aVL,98,0.327577,0.03277
aVL,99,0.330919,0.039184
aVL,100,0.334262,0.0436
aVL,101,0.337604,0.041505
aVL,102,0.340947,0.03407
aVL,103,0.34429,0.027784
aVL,104,0.347632,0.026069
aVL,105,0.350975,0.025622
aVL,106,0.354318,0.022503
aVL,107,0.35766,0.016292
aVL,108,0.361003,0.009298
aVL,109,0.364345,0.005642
aVL,110,0.367688,0.007579
aVL,111,0.371031,0.013289
aVL,112,0.374373,0.017614
aVL,113,0.377716,0.012858
aVL,114,0.381058,-0.001555
aVL,115,0.384401,-0.016317
aVL,116,0.387744,-0.025447
aVL,117,0.391086,-0.027786
aVL,118,0.394429,-0.024172
aVL,119,0.397772,-0.020093
aVL,120,0.401114,-0.019097
aVL,121,0.404457,-0.020023
aVL,122,0.407799,-0.02089
aVL,123,0.411142,-0.020291
aVL,124,0.414485,-0.020186
aVL,125,0.417827,-0.023613
aVL,126,0.42117,-0.029326
aVL,127,0.424513,-0.03425
aVL,128,0.427855,-0.037898
aVL,129,0.431198,-0.040768
aVL,130,0.43454,-0.042797
aVL,131,0.437883,-0.046147
aVL,132,0.441226,-0.051803
aVL,133,0.444568,-0.053441
aVL,134,0.447911,-0.046995
aVL,135,0.451253,-0.03733
aVL,136,0.454596,-0.027643
aVL,137,0.457939,-0.022946
aVL,138,0.461281,-0.0337
aVL,139,0.464624,-0.05507
aVL,140,0.467967,-0.068731
aVL,141,0.471309,-0.07066
aVL,142,0.474652,-0.070066
aVL,143,0.477994,-0.070761
aVL,144,0.481337,-0.071994
aVL,145,0.48468,-0.074049
aVL,146,0.488022,-0.075688
aVL,147,0.491365,-0.074992
aVL,148,0.494708,-0.072766
aVL,149,0.49805,-0.071372
aVL,150,0.501393,-0.07164
aVL,151,0.504735,-0.072518
aVL,152,0.508078,-0.071479
aVL,153,0.511421,-0.066504
aVL,154,0.514763,-0.058955
aVL,155,0.518106,-0.051751
aVL,156,0.521448,-0.048046
aVL,157,0.524791,-0.049269
aVL,158,0.528134,-0.05347
aVL,159,0.531476,-0.057212
aVL,160,0.534819,-0.054634
aVL,161,0.538162,-0.046215
aVL,162,0.541504,-0.039923
aVL,163,0.544847,-0.03524
aVL,164,0.548189,-0.033571
aVL,165,0.551532,-0.043695
aVL,166,0.554875,-0.060439
aVL,167,0.558217,-0.076242
aVL,168,0.56156,-0.095581
aVL,169,0.564903,-0.113668
aVL,170,0.568245,-0.11992
aVL,171,0.571588,-0.118236
aVL,172,0.57493,-0.114831
aVL,173,0.578273,-0.110272
aVL,174,0.581616,-0.107893
aVL,175,0.584958,-0.109876
aVL,176,0.588301,-0.114321
aVL,177,0.591643,-0.119248
aVL,178,0.594986,-0.123545
aVL,179,0.598329,-0.128439
aVL,180,0.601671,-0.135418
aVL,181,0.605014,-0.141805
aVL,182,0.608357,-0.144088
aVL,183,0.611699,-0.143129
aVL,184,0.615042,-0.14002
aVL,185,0.618384,-0.133939
aVL,186,0.621727,-0.138341
aVL,187,0.62507,-0.166019
aVL,188,0.628412,-0.196131
aVL,189,0.631755,-0.223077
aVL,190,0.635097,-0.271864
aVL,191,0.63844,-0.326692
aVL,192,0.641783,-0.364972
aVL,193,0.645125,-0.372844
aVL,194,0.648468,-0.31917
aVL,195,0.651811,-0.232227
aVL,196,0.655153,-0.100637
aVL,197,0.658496,0.175957
aVL,198,0.661838,0.568799
aVL,199,0.665181,0.898857
aVL,200,0.668524,1.053156
aVL,201,0.671866,1.085893
aVL,202,0.675209,1.00126
aVL,203,0.678552,0.740421
aVL,204,0.681894,0.438903
aVL,205,0.685237,0.241999
aVL,206,0.688579,0.121404
aVL,207,0.691922,0.042666
aVL,208,0.695265,-0.000203
aVL,209,0.698607,-0.039408
aVL,210,0.70195,-0.091133
aVL,211,0.705292,-0.130037
aVL,212,0.708635,-0.142256
aVL,213,0.711978,-0.147964
aVL,214,0.71532,-0.156888
aVL,215,0.718663,-0.161043
aVL,216,0.722006,-0.162163
aVL,217,0.725348,-0.166768
aVL,218,0.728691,-0.172567
aVL,219,0.732033,-0.174171
aVL,220,0.735376,-0.170663
aVL,221,0.738719,-0.16602
aVL,222,0.742061,-0.165294
aVL,223,0.745404,-0.169602
aVL,224,0.748747,-0.174715
aVL,225,0.752089,-0.176437
aVL,226,0.755432,-0.175196
aVL,227,0.758774,-0.172276
aVL,228,0.762117,-0.16769
aVL,229,0.76546,-0.163656
aVL,230,0.768802,-0.16268
aVL,231,0.772145,-0.163944
aVL,232,0.775487,-0.166967
aVL,233,0.77883,-0.170753
aVL,234,0.782173,-0.173706
aVL,235,0.785515,-0.181462
aVL,236,0.788858,-0.192555
aVL,237,0.792201,-0.193428
aVL,238,0.795543,-0.18529
aVL,239,0.798886,-0.1795
aVL,240,0.802228,-0.178225
aVL,241,0.805571,-0.179223
aVL,242,0.808914,-0.1796
aVL,243,0.812256,-0.176988
aVL,244,0.815599,-0.172371
aVL,245,0.818942,-0.16786
aVL,246,0.822284,-0.164627
aVL,247,0.825627,-0.163408
aVL,248,0.828969,-0.163345
aVL,249,0.832312,-0.162823
aVL,250,0.835655,-0.162306
aVL,251,0.838997,-0.162319
aVL,252,0.84234,-0.162441
aVL,253,0.845682,-0.162508
aVL,254,0.849025,-0.160468
aVL,255,0.852368,-0.153932
aVL,256,0.85571,-0.145378
aVL,257,0.859053,-0.141375
aVL,258,0.862396,-0.145375
aVL,259,0.865738,-0.153187
aVL,260,0.869081,-0.159005
aVL,261,0.872423,-0.16245
aVL,262,0.875766,-0.165533
aVL,263,0.879109,-0.169415
aVL,264,0.882451,-0.17553
aVL,265,0.885794,-0.182923
aVL,266,0.889136,-0.188588
aVL,267,0.892479,-0.192172
aVL,268,0.895822,-0.192949
aVL,269,0.899164,-0.18911
aVL,270,0.902507,-0.183319
aVL,271,0.90585,-0.178392
aVL,272,0.909192,-0.174263
aVL,273,0.912535,-0.171886
aVL,274,0.915877,-0.170218
aVL,275,0.91922,-0.171065
aVL,276,0.922563,-0.180639
aVL,277,0.925905,-0.191913
aVL,278,0.929248,-0.194101
aVL,279,0.932591,-0.19184
aVL,280,0.935933,-0.189338
aVL,281,0.939276,-0.185633
aVL,282,0.942618,-0.183234
aVL,283,0.945961,-0.179637
aVL,284,0.949304,-0.170915
aVL,285,0.952646,-0.160782
aVL,286,0.955989,-0.153009
aVL,287,0.959331,-0.148573
aVL,288,0.962674,-0.147252
aVL,289,0.966017,-0.146963
aVL,290,0.969359,-0.146247
aVL,291,0.972702,-0.142354
aVL,292,0.976045,-0.133903
aVL,293,0.979387,-0.124261
aVL,294,0.98273,-0.114529
aVL,295,0.986072,-0.105771
aVL,296,0.989415,-0.101648
aVL,297,0.992758,-0.101182
aVL,298,0.9961,-0.100607
aVL,299,0.999443,-0.097721
aVL,300,1.002786,-0.09368
aVL,301,1.006128,-0.092834
aVL,302,1.009471,-0.094866
aVL,303,1.012813,-0.096631
aVL,304,1.016156,-0.09937
aVL,305,1.019499,-0.102662
aVL,306,1.022841,-0.102913
aVL,307,1.026184,-0.099035
aVL,308,1.029526,-0.092439
aVL,309,1.032869,-0.085564
aVL,310,1.036212,-0.080169
aVL,311,1.039554,-0.078989
aVL,312,1.042897,-0.084171
aVL,313,1.04624,-0.092142
aVL,314,1.049582,-0.098391
aVL,315,1.052925,-0.101026
aVL,316,1.056267,-0.101635
aVL,317,1.05961,-0.10079
aVL,318,1.062953,-0.097365
aVL,319,1.066295,-0.102795
aVL,320,1.069638,-0.119351
aVL,321,1.072981,-0.127969
aVL,322,1.076323,-0.126632
aVL,323,1.079666,-0.124049
aVL,324,1.083008,-0.11788
aVL,325,1.086351,-0.108412
aVL,326,1.089694,-0.099106
aVL,327,1.093036,-0.092526
aVL,328,1.096379,-0.091523
aVL,329,1.099721,-0.094579
aVL,330,1.103064,-0.097789
aVL,331,1.106407,-0.100328
aVL,332,1.109749,-0.103263
aVL,333,1.113092,-0.10597
aVL,334,1.116435,-0.107077
aVL,335,1.119777,-0.108632
aVL,336,1.12312,-0.113196
aVL,337,1.126462,-0.117768
aVL,338,1.129805,-0.118713
aVL,339,1.133148,-0.117807
aVL,340,1.13649,-0.11677
aVL,341,1.139833,-0.113719
aVL,342,1.143175,-0.109108
aVL,343,1.146518,-0.105632
aVL,344,1.149861,-0.102224
aVL,345,1.153203,-0.097746
aVL,346,1.156546,-0.094632
aVL,347,1.159889,-0.093523
aVL,348,1.163231,-0.092604
aVL,349,1.166574,-0.091165
aVL,350,1.169916,-0.090086
aVL,351,1.173259,-0.091341
aVL,352,1.176602,-0.09398
aVL,353,1.179944,-0.092886
aVL,354,1.183287,-0.086145
aVL,355,1.18663,-0.076676
aVL,356,1.189972,-0.067688
aVL,357,1.193315,-0.063152
aVL,358,1.196657,-0.065694
aVL,359,1.2,-0.072731
aVL,360,1.203343,-0.079415
aVL,361,1.206685,-0.081862
aVL,362,1.210028,-0.079101
aVL,363,1.21337,-0.07407
aVL,364,1.216713,-0.069255
aVL,365,1.220056,-0.063995
aVL,366,1.223398,-0.059044
aVL,367,1.226741,-0.057921
aVL,368,1.230084,-0.060265
aVL,369,1.233426,-0.061588
aVL,370,1.236769,-0.060734
aVL,371,1.240111,-0.059524
aVL,372,1.243454,-0.058382
aVL,373,1.246797,-0.057056
aVL,374,1.250139,-0.05592
aVL,375,1.253482,-0.055123
aVL,376,1.256825,-0.053917
aVL,377,1.260167,-0.053189
aVL,378,1.26351,-0.055246
aVL,379,1.266852,-0.057929
aVL,380,1.270195,-0.057727
aVL,381,1.273538,-0.056321
aVL,382,1.27688,-0.055604
aVL,383,1.280223,-0.054482
aVL,384,1.283565,-0.053282
aVL,385,1.286908,-0.054182
aVL,386,1.290251,-0.056733
aVL,387,1.293593,-0.057896
aVL,388,1.296936,-0.057294
aVL,389,1.300279,-0.056001
aVL,390,1.303621,-0.052708
aVL,391,1.306964,-0.04785
aVL,392,1.310306,-0.044672
aVL,393,1.313649,-0.043651
aVL,394,1.316992,-0.043102
aVL,395,1.320334,-0.041894
aVL,396,1.323677,-0.038549
aVL,397,1.327019,-0.033713
aVL,398,1.330362,-0.030585
aVL,399,1.333705,-0.029637
aVL,400,1.337047,-0.029032
aVL,401,1.34039,-0.028004
aVL,402,1.343733,-0.02466
aVL,403,1.347075,-0.019128
aVL,404,1.350418,-0.019582
aVL,405,1.35376,-0.026611
aVL,406,1.357103,-0.030844
aVL,407,1.360446,-0.03777
aVL,408,1.363788,-0.048529
aVL,409,1.367131,-0.04764
aVL,410,1.370474,-0.037777
aVL,411,1.373816,-0.030415
aVL,412,1.377159,-0.025734
aVL,413,1.380501,-0.023982
aVL,414,1.383844,-0.025384
aVL,415,1.387187,-0.027578
aVL,416,1.390529,-0.028808
aVL,417,1.393872,-0.028264
aVL,418,1.397214,-0.025437
aVL,419,1.400557,-0.021059
aVL,420,1.4039,-0.01774
aVL,421,1.407242,-0.016323
aVL,422,1.410585,-0.015501
aVL,423,1.413928,-0.014867
aVL,424,1.41727,-0.014392
aVL,425,1.420613,-0.013736
aVL,426,1.423955,-0.012565
aVL,427,1.427298,-0.009253
aVL,428,1.430641,-0.002175
aVL,429,1.433983,0.004098
aVL,430,1.437326,0.001044
aVL,431,1.440669,-0.009929
aVL,432,1.444011,-0.021109
aVL,433,1.447354,-0.031982
aVL,434,1.450696,-0.040069
aVL,435,1.454039,-0.038871
aVL,436,1.457382,-0.031481
aVL,437,1.460724,-0.023807
aVL,438,1.464067,-0.015603
aVL,439,1.467409,-0.00798
aVL,440,1.470752,-0.004683
aVL,441,1.474095,-0.006113
aVL,442,1.477437,-0.010021
aVL,443,1.48078,-0.013503
aVL,444,1.484123,-0.012504
aVL,445,1.487465,-0.005486
aVL,446,1.490808,0.003478
aVL,447,1.49415,0.009919
aVL,448,1.497493,0.014256
aVL,449,1.500836,0.018105
aVL,450,1.504178,0.020836
aVL,451,1.507521,0.022569
aVL,452,1.510864,0.023819
aVL,453,1.514206,0.024235
aVL,454,1.517549,0.023794
aVL,455,1.520891,0.021714
aVL,456,1.524234,0.018908
aVL,457,1.527577,0.017944
aVL,458,1.530919,0.01877
aVL,459,1.534262,0.022345
aVL,460,1.537604,0.030075
aVL,461,1.540947,0.03934
aVL,462,1.54429,0.047042
aVL,463,1.547632,0.050318
aVL,464,1.550975,0.048721
aVL,465,1.554318,0.046591
aVL,466,1.55766,0.046352
aVL,467,1.561003,0.048333
aVL,468,1.564345,0.054416
aVL,469,1.567688,0.063982
aVL,470,1.571031,0.07079
aVL,471,1.574373,0.068453
aVL,472,1.577716,0.05876
aVL,473,1.581058,0.047368
aVL,474,1.584401,0.036487
aVL,475,1.587744,0.029185
aVL,476,1.591086,0.02797
aVL,477,1.594429,0.028718
aVL,478,1.597772,0.025864
aVL,479,1.601114,0.019394
aVL,480,1.604457,0.013989
aVL,481,1.607799,0.013077
aVL,482,1.611142,0.014975
aVL,483,1.614485,0.014822
aVL,484,1.617827,0.009665
aVL,485,1.62117,0.001513
aVL,486,1.624513,-0.005542
aVL,487,1.627855,-0.008438
aVL,488,1.631198,-0.005233
aVL,489,1.63454,0.001885
aVL,490,1.637883,0.005161
aVL,491,1.641226,5.8e-05
aVL,492,1.644568,-0.016934
aVL,493,1.647911,-0.054621
aVL,494,1.651253,-0.104233
aVL,495,1.654596,-0.146778
aVL,496,1.657939,-0.182847
aVL,497,1.661281,-0.213246
aVL,498,1.664624,-0.216327
aVL,499,1.667967,-0.15034
aVL,500,1.671309,-0.000695
aVL,501,1.674652,0.228666
aVL,502,1.677994,0.578111
aVL,503,1.681337,0.987531
aVL,504,1.68468,1.240042
aVL,505,1.688022,1.283794
aVL,506,1.691365,1.253447
aVL,507,1.694708,1.113603
aVL,508,1.69805,0.809725
aVL,509,1.701393,0.531625
aVL,510,1.704735,0.384467
aVL,511,1.708078,0.272604
aVL,512,1.711421,0.183705
aVL,513,1.714763,0.148111
aVL,514,1.718106,0.116359
aVL,515,1.721448,0.072024
aVL,516,1.724791,0.04795
aVL,517,1.728134,0.039832
aVL,518,1.731476,0.027311
aVL,519,1.734819,0.014713
aVL,520,1.738162,0.008353
aVL,521,1.741504,0.002611
aVL,522,1.744847,-0.00331
aVL,523,1.748189,-0.005105
aVL,524,1.751532,-0.004492
aVL,525,1.754875,-0.00456
aVL,526,1.758217,-0.005283
aVL,527,1.76156,-0.006302
aVL,528,1.764903,-0.005617
aVL,529,1.768245,-0.000892
aVL,530,1.771588,0.006588
aVL,531,1.77493,0.013913
aVL,532,1.778273,0.016747
aVL,533,1.781616,0.012324
aVL,534,1.784958,0.005711
aVL,535,1.788301,0.00254
aVL,536,1.791643,0.001787
aVL,537,1.794986,0.001061
aVL,538,1.798329,0.000371
aVL,539,1.801671,-0.000229
aVL,540,1.805014,-0.002343
aVL,541,1.808357,-0.005482
aVL,542,1.811699,-0.005572
aVL,543,1.815042,-0.002323
aVL,544,1.818384,-0.001591
aVL,545,1.821727,-0.005636
aVL,546,1.82507,-0.009378
aVL,547,1.828412,-0.009519
aVL,548,1.831755,-0.007218
aVL,549,1.835097,-0.004049
aVL,550,1.83844,-0.00358
aVL,551,1.841783,-0.00756
aVL,552,1.845125,-0.011289
aVL,553,1.848468,-0.011506
aVL,554,1.851811,-0.00919
aVL,555,1.855153,-0.004408
aVL,556,1.858496,0.002623
aVL,557,1.861838,0.010097
aVL,558,1.865181,0.015933
aVL,559,1.868524,0.018227
aVL,560,1.871866,0.015856
aVL,561,1.875209,0.009025
aVL,562,1.878552,0.0003
aVL,563,1.881894,-0.006188
aVL,564,1.885237,-0.008184
aVL,565,1.888579,-0.006086
aVL,566,1.891922,-0.002388
aVL,567,1.895265,-0.001821
aVL,568,1.898607,-0.006967
aVL,569,1.90195,-0.014967
aVL,570,1.905292,-0.021905
aVL,571,1.908635,-0.026642
aVL,572,1.911978,-0.03058
aVL,573,1.91532,-0.034557
aVL,574,1.918663,-0.036788
aVL,575,1.922006,-0.037979
aVL,576,1.925348,-0.041313
aVL,577,1.928691,-0.045222
aVL,578,1.932033,-0.046349
aVL,579,1.935376,-0.044611
aVL,580,1.938719,-0.04227
aVL,581,1.942061,-0.04294
aVL,582,1.945404,-0.046449
aVL,583,1.948747,-0.048867
aVL,584,1.952089,-0.049376
aVL,585,1.955432,-0.048066
aVL,586,1.958774,-0.043454
aVL,587,1.962117,-0.036243
aVL,588,1.96546,-0.028239
aVL,589,1.968802,-0.020648
aVL,590,1.972145,-0.015194
aVL,591,1.975487,-0.012082
aVL,592,1.97883,-0.009343
aVL,593,1.982173,-0.005931
aVL,594,1.985515,-0.002369
aVL,595,1.988858,0.001661
aVL,596,1.992201,0.007091
aVL,597,1.995543,0.01351
aVL,598,1.998886,0.021259
aVL,599,2.002228,0.030694
aVL,600,2.005571,0.039728
aVL,601,2.008914,0.046704
aVL,602,2.012256,0.05031
aVL,603,2.015599,0.050067
aVL,604,2.018942,0.048465
aVL,605,2.022284,0.047922
aVL,606,2.025627,0.049923
aVL,607,2.028969,0.053355
aVL,608,2.032312,0.052663
aVL,609,2.035655,0.045965
aVL,610,2.038997,0.039038
aVL,611,2.04234,0.036063
aVL,612,2.045682,0.035939
aVL,613,2.049025,0.038013
aVL,614,2.052368,0.041047
aVL,615,2.05571,0.041724
aVL,616,2.059053,0.0407
aVL,617,2.062396,0.03956
aVL,618,2.065738,0.034928
aVL,619,2.069081,0.025899
aVL,620,2.072423,0.017863
aVL,621,2.075766,0.01428
aVL,622,2.079109,0.013174
aVL,623,2.082451,0.012712
aVL,624,2.085794,0.012411
aVL,625,2.089136,0.010234
aVL,626,2.092479,0.00598
aVL,627,2.095822,0.00266
aVL,628,2.099164,0.001344
aVL,629,2.102507,0.000874
aVL,630,2.10585,0.000767
aVL,631,2.109192,0.000652
aVL,632,2.112535,0.000157
aVL,633,2.115877,-0.001196
aVL,634,2.11922,-0.004539
aVL,635,2.122563,-0.008745
aVL,636,2.125905,-0.010769
aVL,637,2.129248,-0.011026
aVL,638,2.132591,-0.011461
aVL,639,2.135933,-0.010698
aVL,640,2.139276,-0.008198
aVL,641,2.142618,-0.006757
aVL,642,2.145961,-0.006368
aVL,643,2.149304,-0.006124
aVL,644,2.152646,-0.010925
aVL,645,2.155989,-0.018534
aVL,646,2.159331,-0.021417
aVL,647,2.162674,-0.029617
aVL,648,2.166017,-0.04557
aVL,649,2.169359,-0.051515
aVL,650,2.172702,-0.047629
aVL,651,2.176045,-0.043229
aVL,652,2.179387,-0.036995
aVL,653,2.18273,-0.031278
aVL,654,2.186072,-0.028904
aVL,655,2.189415,-0.026651
aVL,656,2.192758,-0.023771
aVL,657,2.1961,-0.022921
aVL,658,2.199443,-0.023858
aVL,659,2.202786,-0.024492
aVL,660,2.206128,-0.023913
aVL,661,2.209471,-0.021309
aVL,662,2.212813,-0.01788
aVL,663,2.216156,-0.016599
aVL,664,2.219499,-0.017129
aVL,665,2.222841,-0.017035
aVL,666,2.226184,-0.016318
aVL,667,2.229526,-0.015572
aVL,668,2.232869,-0.013741
aVL,669,2.236212,-0.010746
aVL,670,2.239554,-0.007308
aVL,671,2.242897,-0.002777
aVL,672,2.24624,-0.000375
aVL,673,2.249582,-0.005864
aVL,674,2.252925,-0.014483
aVL,675,2.256267,-0.016911
aVL,676,2.25961,-0.0144
aVL,677,2.262953,-0.012561
aVL,678,2.266295,-0.013386
aVL,679,2.269638,-0.016773
aVL,680,2.272981,-0.020683
aVL,681,2.276323,-0.02335
aVL,682,2.279666,-0.025932
aVL,683,2.283008,-0.029016
aVL,684,2.286351,-0.030141
aVL,685,2.289694,-0.02748
aVL,686,2.293036,-0.021559
aVL,687,2.296379,-0.014286
aVL,688,2.299721,-0.00867
aVL,689,2.303064,-0.005836
aVL,690,2.306407,-0.004643
aVL,691,2.309749,-0.004598
aVL,692,2.313092,-0.007481
aVL,693,2.316435,-0.016722
aVL,694,2.319777,-0.027039
aVL,695,2.32312,-0.028944
aVL,696,2.326462,-0.026167
aVL,697,2.329805,-0.023331
aVL,698,2.333148,-0.017897
aVL,699,2.33649,-0.012392
aVL,700,2.339833,-0.009764
aVL,701,2.343175,-0.008484
aVL,702,2.346518,-0.007655
aVL,703,2.349861,-0.007015
aVL,704,2.353203,-0.006915
aVL,705,2.356546,-0.009248
aVL,706,2.359889,-0.014897
aVL,707,2.363231,-0.02167
aVL,708,2.366574,-0.026104
aVL,709,2.369916,-0.02724
aVL,710,2.373259,-0.027111
aVL,711,2.376602,-0.027193
aVL,712,2.379944,-0.026859
aVL,713,2.383287,-0.025584
aVL,714,2.38663,-0.024164
aVL,715,2.389972,-0.02288
aVL,716,2.393315,-0.020746
aVL,717,2.396657,-0.017463
aVF,0,0.0,-0.04353
aVF,1,0.003343,-0.031324
aVF,2,0.006685,0.00924
aVF,3,0.010028,0.027307
aVF,4,0.01337,0.01829
aVF,5,0.016713,0.010326
aVF,6,0.020056,0.002709
aVF,7,0.023398,0.002247
aVF,8,0.026741,0.008895
aVF,9,0.030084,0.010657
aVF,10,0.033426,0.010755
aVF,11,0.036769,0.008403
aVF,12,0.040111,-0.007667
aVF,13,0.043454,-0.026579
aVF,14,0.046797,-0.033584
aVF,15,0.050139,-0.042902
aVF,16,0.053482,-0.059039
aVF,17,0.056825,-0.065195
aVF,18,0.060167,-0.061276
aVF,19,0.06351,-0.056995
aVF,20,0.066852,-0.055539
aVF,21,0.070195,-0.058656
aVF,22,0.073538,-0.063468
aVF,23,0.07688,-0.064584
aVF,24,0.080223,-0.062059
aVF,25,0.083565,-0.057828
aVF,26,0.086908,-0.051443
aVF,27,0.090251,-0.045011
aVF,28,0.093593,-0.044174
aVF,29,0.096936,-0.049137
aVF,30,0.100279,-0.052935
aVF,31,0.103621,-0.051009
aVF,32,0.106964,-0.044578
aVF,33,0.110306,-0.03595
aVF,34,0.113649,-0.026968
aVF,35,0.116992,-0.020433
aVF,36,0.120334,-0.018227
aVF,37,0.123677,-0.017813
aVF,38,0.127019,-0.015772
aVF,39,0.130362,-0.013407
aVF,40,0.133705,-0.01291
aVF,41,0.137047,-0.012715
aVF,42,0.14039,-0.010584
aVF,43,0.143733,-0.006473
aVF,44,0.147075,-0.001917
aVF,45,0.150418,0.000441
aVF,46,0.15376,-0.00155
aVF,47,0.157103,-0.005644
aVF,48,0.160446,-0.005841
aVF,49,0.163788,0.000333
aVF,50,0.167131,0.009008
aVF,51,0.170474,0.01563
aVF,52,0.173816,0.019578
aVF,53,0.177159,0.023137
aVF,54,0.180501,0.028831
aVF,55,0.183844,0.03742
aVF,56,0.187187,0.046116
aVF,57,0.190529,0.050584
aVF,58,0.193872,0.050358
aVF,59,0.197214,0.049046
aVF,60,0.200557,0.050648
aVF,61,0.2039,0.057305
aVF,62,0.207242,0.066051
aVF,63,0.210585,0.070716
aVF,64,0.213928,0.069904
aVF,65,0.21727,0.068002
aVF,66,0.220613,0.069344
aVF,67,0.223955,0.074106
aVF,68,0.227298,0.079465
aVF,69,0.230641,0.084134
aVF,70,0.233983,0.088711
aVF,71,0.237326,0.093094
aVF,72,0.240669,0.096011
aVF,73,0.244011,0.09583
aVF,74,0.247354,0.09162
aVF,75,0.250696,0.08254
aVF,76,0.254039,0.071214
aVF,77,0.257382,0.065849
aVF,78,0.260724,0.070012
aVF,79,0.264067,0.080065
aVF,80,0.267409,0.091926
aVF,81,0.270752,0.099814
aVF,82,0.274095,0.100533
aVF,83,0.277437,0.099358
aVF,84,0.28078,0.100679
aVF,85,0.284123,0.102152
aVF,86,0.287465,0.102441
aVF,87,0.290808,0.100456
aVF,88,0.29415,0.092633
aVF,89,0.297493,0.082816
aVF,90,0.300836,0.078827
aVF,91,0.304178,0.080858
aVF,92,0.307521,0.085448
aVF,93,0.310864,0.089576
aVF,94,0.314206,0.09013
aVF,95,0.317549,0.088008
aVF,96,0.320891,0.088695
aVF,97,0.324234,0.094622
aVF,98,0.327577,0.101954
aVF,99,0.330919,0.106017
aVF,100,0.334262,0.105792
aVF,101,0.337604,0.105401
aVF,102,0.340947,0.109671
aVF,103,0.34429,0.116203
aVF,104,0.347632,0.117999
aVF,105,0.350975,0.111405
aVF,106,0.354318,0.098458
aVF,107,0.35766,0.086796
aVF,108,0.361003,0.084917
aVF,109,0.364345,0.094363
aVF,110,0.367688,0.108593
aVF,111,0.371031,0.118557
aVF,112,0.374373,0.119158
aVF,113,0.377716,0.112616
aVF,114,0.381058,0.106947
aVF,115,0.384401,0.108776
aVF,116,0.387744,0.115233
aVF,117,0.391086,0.116904
aVF,118,0.394429,0.11045
aVF,119,0.397772,0.103358
aVF,120,0.401114,0.103518
aVF,121,0.404457,0.11148
aVF,122,0.407799,0.122937
aVF,123,0.411142,0.121885
aVF,124,0.414485,0.114527
aVF,125,0.417827,0.128732
aVF,126,0.42117,0.102022
aVF,127,0.424513,0.131284
aVF,128,0.427855,0.230012
aVF,129,0.431198,-0.080064
aVF,130,0.43454,-0.43315
aVF,131,0.437883,-0.123679
aVF,132,0.441226,0.181629
aVF,133,0.444568,0.107275
aVF,134,0.447911,0.103391
aVF,135,0.451253,0.139648
aVF,136,0.454596,0.11784
aVF,137,0.457939,0.116736
aVF,138,0.461281,0.12805
aVF,139,0.464624,0.143928
aVF,140,0.467967,0.154479
aVF,141,0.471309,0.144322
aVF,142,0.474652,0.123484
aVF,143,0.477994,0.110441
aVF,144,0.481337,0.113674
aVF,145,0.48468,0.131121
aVF,146,0.488022,0.149548
aVF,147,0.491365,0.153318
aVF,148,0.494708,0.147003
aVF,149,0.49805,0.154403
aVF,150,0.501393,0.177192
aVF,151,0.504735,0.201268
aVF,152,0.508078,0.234506
aVF,153,0.511421,0.20665
aVF,154,0.514763,0.168397
aVF,155,0.518106,0.286499
aVF,156,0.521448,0.046931
aVF,157,0.524791,-0.682256
aVF,158,0.528134,-0.689103
aVF,159,0.531476,0.027854
aVF,160,0.534819,0.254458
aVF,161,0.538162,0.119836
aVF,162,0.541504,0.14826
aVF,163,0.544847,0.183279
aVF,164,0.548189,0.164705
aVF,165,0.551532,0.147295
aVF,166,0.554875,0.120889
aVF,167,0.558217,0.106986
aVF,168,0.56156,0.116827
aVF,169,0.564903,0.136111
aVF,170,0.568245,0.1449
aVF,171,0.571588,0.134966
aVF,172,0.57493,0.119216
aVF,173,0.578273,0.109238
aVF,174,0.581616,0.110839
aVF,175,0.584958,0.126104
aVF,176,0.588301,0.13668
aVF,177,0.591643,0.12745
aVF,178,0.594986,0.111211
aVF,179,0.598329,0.106094
aVF,180,0.601671,0.116831
aVF,181,0.605014,0.134624
aVF,182,0.608357,0.143362
aVF,183,0.611699,0.135654
aVF,184,0.615042,0.121338
aVF,185,0.618384,0.114799
aVF,186,0.621727,0.126079
aVF,187,0.62507,0.151757
aVF,188,0.628412,0.173823
aVF,189,0.631755,0.194962
aVF,190,0.635097,0.229803
aVF,191,0.63844,0.272024
aVF,192,0.641783,0.322134
aVF,193,0.645125,0.3823
aVF,194,0.648468,0.431
aVF,195,0.651811,0.461803
aVF,196,0.655153,0.465676
aVF,197,0.658496,0.399033
aVF,198,0.661838,0.273293
aVF,199,0.665181,0.090503
aVF,200,0.668524,-0.195196
aVF,201,0.671866,-0.452492
aVF,202,0.675209,-0.533251
aVF,203,0.678552,-0.507424
aVF,204,0.681894,-0.443841
aVF,205,0.685237,-0.352118
aVF,206,0.688579,-0.258002
aVF,207,0.691922,-0.173048
aVF,208,0.695265,-0.107968
aVF,209,0.698607,-0.049375
aVF,210,0.70195,0.015287
aVF,211,0.705292,0.06042
aVF,212,0.708635,0.081109
aVF,213,0.711978,0.09007
aVF,214,0.71532,0.087622
aVF,215,0.718663,0.083148
aVF,216,0.722006,0.088078
aVF,217,0.725348,0.098763
aVF,218,0.728691,0.105169
aVF,219,0.732033,0.101668
aVF,220,0.735376,0.093088
aVF,221,0.738719,0.089936
aVF,222,0.742061,0.096998
aVF,223,0.745404,0.110181
aVF,224,0.748747,0.120555
aVF,225,0.752089,0.121177
aVF,226,0.755432,0.113611
aVF,227,0.758774,0.10699
aVF,228,0.762117,0.109006
aVF,229,0.76546,0.117845
aVF,230,0.768802,0.122625
aVF,231,0.772145,0.115218
aVF,232,0.775487,0.100868
aVF,233,0.77883,0.090959
aVF,234,0.782173,0.090315
aVF,235,0.785515,0.095379
aVF,236,0.788858,0.099052
aVF,237,0.792201,0.095544
aVF,238,0.795543,0.085512
aVF,239,0.798886,0.077621
aVF,240,0.802228,0.078662
aVF,241,0.805571,0.085934
aVF,242,0.808914,0.09267
aVF,243,0.812256,0.093978
aVF,244,0.815599,0.090578
aVF,245,0.818942,0.088765
aVF,246,0.822284,0.091987
aVF,247,0.825627,0.096138
aVF,248,0.828969,0.096539
aVF,249,0.832312,0.094543
aVF,250,0.835655,0.092946
aVF,251,0.838997,0.091374
aVF,252,0.84234,0.090581
aVF,253,0.845682,0.091891
aVF,254,0.849025,0.092031
aVF,255,0.852368,0.087901
aVF,256,0.85571,0.08319
aVF,257,0.859053,0.08385
aVF,258,0.862396,0.090241
aVF,259,0.865738,0.097901
aVF,260,0.869081,0.101696
aVF,261,0.872423,0.097599
aVF,262,0.875766,0.087379
aVF,263,0.879109,0.077839
aVF,264,0.882451,0.073234
aVF,265,0.885794,0.075359
aVF,266,0.889136,0.081724
aVF,267,0.892479,0.086777
aVF,268,0.895822,0.093438
aVF,269,0.899164,0.105174
aVF,270,0.902507,0.117103
aVF,271,0.90585,0.126884
aVF,272,0.909192,0.13469
aVF,273,0.912535,0.139811
aVF,274,0.915877,0.143982
aVF,275,0.91922,0.14894
aVF,276,0.922563,0.155027
aVF,277,0.925905,0.160674
aVF,278,0.929248,0.162403
aVF,279,0.932591,0.15925
aVF,280,0.935933,0.153448
aVF,281,0.939276,0.148396
aVF,282,0.942618,0.147764
aVF,283,0.945961,0.151268
aVF,284,0.949304,0.1546
aVF,285,0.952646,0.156261
aVF,286,0.955989,0.156508
aVF,287,0.959331,0.152685
aVF,288,0.962674,0.143543
aVF,289,0.966017,0.131266
aVF,290,0.969359,0.117023
aVF,291,0.972702,0.102149
aVF,292,0.976045,0.090252
aVF,293,0.979387,0.083774
aVF,294,0.98273,0.082362
aVF,295,0.986072,0.079165
aVF,296,0.989415,0.066161
aVF,297,0.992758,0.050359
aVF,298,0.9961,0.04231
aVF,299,0.999443,0.040339
aVF,300,1.002786,0.042745
aVF,301,1.006128,0.0495
aVF,302,1.009471,0.054746
aVF,303,1.012813,0.054521
aVF,304,1.016156,0.051922
aVF,305,1.019499,0.050811
aVF,306,1.022841,0.051128
aVF,307,1.026184,0.051727
aVF,308,1.029526,0.053052
aVF,309,1.032869,0.054411
aVF,310,1.036212,0.054291
aVF,311,1.039554,0.053368
aVF,312,1.042897,0.051079
aVF,313,1.04624,0.045579
aVF,314,1.049582,0.038617
aVF,315,1.052925,0.031759
aVF,316,1.056267,0.025568
aVF,317,1.05961,0.023215
aVF,318,1.062953,0.021749
aVF,319,1.066295,0.014578
aVF,320,1.069638,0.005895
aVF,321,1.072981,0.002167
aVF,322,1.076323,0.003993
aVF,323,1.079666,0.010985
aVF,324,1.083008,0.020481
aVF,325,1.086351,0.029991
aVF,326,1.089694,0.03722
aVF,327,1.093036,0.038173
aVF,328,1.096379,0.03366
aVF,329,1.099721,0.028826
aVF,330,1.103064,0.026695
aVF,331,1.106407,0.026087
aVF,332,1.109749,0.025177
aVF,333,1.113092,0.025357
aVF,334,1.116435,0.02725
aVF,335,1.119777,0.028701
aVF,336,1.12312,0.028441
aVF,337,1.126462,0.025733
aVF,338,1.129805,0.020662
aVF,339,1.133148,0.016494
aVF,340,1.13649,0.017081
aVF,341,1.139833,0.022209
aVF,342,1.143175,0.02792
aVF,343,1.146518,0.031884
aVF,344,1.149861,0.034272
aVF,345,1.153203,0.03453
aVF,346,1.156546,0.033177
aVF,347,1.159889,0.032232
aVF,348,1.163231,0.031841
aVF,349,1.166574,0.031267
aVF,350,1.169916,0.029755
aVF,351,1.173259,0.025584
aVF,352,1.176602,0.020503
aVF,353,1.179944,0.019816
aVF,354,1.183287,0.022999
aVF,355,1.18663,0.024603
aVF,356,1.189972,0.023146
aVF,357,1.193315,0.018879
aVF,358,1.196657,0.011663
aVF,359,1.2,0.005044
aVF,360,1.203343,0.00222
aVF,361,1.206685,0.001442
aVF,362,1.210028,-0.000114
aVF,363,1.21337,-0.004189
aVF,364,1.216713,-0.0114
aVF,365,1.220056,-0.020231
aVF,366,1.223398,-0.027114
aVF,367,1.226741,-0.027265
aVF,368,1.230084,-0.020506
aVF,369,1.233426,-0.012705
aVF,370,1.236769,-0.006387
aVF,371,1.240111,-0.000269
aVF,372,1.243454,0.003654
aVF,373,1.246797,0.002209
aVF,374,1.250139,-0.003027
aVF,375,1.253482,-0.007069
aVF,376,1.256825,-0.008232
aVF,377,1.260167,-0.008747
aVF,378,1.26351,-0.009277
aVF,379,1.266852,-0.008048
aVF,380,1.270195,-0.005961
aVF,381,1.273538,-0.00759
aVF,382,1.27688,-0.014672
aVF,383,1.280223,-0.023535
aVF,384,1.283565,-0.030043
aVF,385,1.286908,-0.0335
aVF,386,1.290251,-0.03502
aVF,387,1.293593,-0.034481
aVF,388,1.296936,-0.031683
aVF,389,1.300279,-0.027767
aVF,390,1.303621,-0.024448
aVF,391,1.306964,-0.023549
aVF,392,1.310306,-0.025005
aVF,393,1.313649,-0.026724
aVF,394,1.316992,-0.027648
aVF,395,1.320334,-0.028151
aVF,396,1.323677,-0.02877
aVF,397,1.327019,-0.029938
aVF,398,1.330362,-0.031586
aVF,399,1.333705,-0.033063
aVF,400,1.337047,-0.034009
aVF,401,1.34039,-0.034559
aVF,402,1.343733,-0.034917
aVF,403,1.347075,-0.036534
aVF,404,1.350418,-0.038192
aVF,405,1.35376,-0.037865
aVF,406,1.357103,-0.043226
aVF,407,1.360446,-0.054347
aVF,408,1.363788,-0.056612
aVF,409,1.367131,-0.050393
aVF,410,1.370474,-0.046384
aVF,411,1.373816,-0.043533
aVF,412,1.377159,-0.037729
aVF,413,1.380501,-0.033131
aVF,414,1.383844,-0.03574
aVF,415,1.387187,-0.044529
aVF,416,1.390529,-0.055727
aVF,417,1.393872,-0.065409
aVF,418,1.397214,-0.069201
aVF,419,1.400557,-0.067189
aVF,420,1.4039,-0.061697
aVF,421,1.407242,-0.054867
aVF,422,1.410585,-0.050206
aVF,423,1.413928,-0.049256
aVF,424,1.41727,-0.05016
aVF,425,1.420613,-0.050453
aVF,426,1.423955,-0.049071
aVF,427,1.427298,-0.046485
aVF,428,1.430641,-0.043127
aVF,429,1.433983,-0.04119
aVF,430,1.437326,-0.044214
aVF,431,1.440669,-0.051912
aVF,432,1.444011,-0.062331
aVF,433,1.447354,-0.074038
aVF,434,1.450696,-0.084564
aVF,435,1.454039,-0.091481
aVF,436,1.457382,-0.092007
aVF,437,1.460724,-0.086694
aVF,438,1.464067,-0.081093
aVF,439,1.467409,-0.077726
aVF,440,1.470752,-0.075537
aVF,441,1.474095,-0.074353
aVF,442,1.477437,-0.072847
aVF,443,1.48078,-0.069356
aVF,444,1.484123,-0.065528
aVF,445,1.487465,-0.065091
aVF,446,1.490808,-0.068191
aVF,447,1.49415,-0.069095
aVF,448,1.497493,-0.064082
aVF,449,1.500836,-0.055715
aVF,450,1.504178,-0.048091
aVF,451,1.507521,-0.043627
aVF,452,1.510864,-0.039706
aVF,453,1.514206,-0.032572
aVF,454,1.517549,-0.023655
aVF,455,1.520891,-0.014166
aVF,456,1.524234,-0.006228
aVF,457,1.527577,-0.006591
aVF,458,1.530919,-0.014931
aVF,459,1.534262,-0.020847
aVF,460,1.537604,-0.024782
aVF,461,1.540947,-0.038718
aVF,462,1.54429,-0.05535
aVF,463,1.547632,-0.059939
aVF,464,1.550975,-0.060585
aVF,465,1.554318,-0.065775
aVF,466,1.55766,-0.071783
aVF,467,1.561003,-0.077171
aVF,468,1.564345,-0.08165
aVF,469,1.567688,-0.085571
aVF,470,1.571031,-0.089342
aVF,471,1.574373,-0.090663
aVF,472,1.577716,-0.088527
aVF,473,1.581058,-0.084478
aVF,474,1.584401,-0.080211
aVF,475,1.587744,-0.077463
aVF,476,1.591086,-0.079418
aVF,477,1.594429,-0.08642
aVF,478,1.597772,-0.092553
aVF,479,1.601114,-0.094329
aVF,480,1.604457,-0.096726
aVF,481,1.607799,-0.103878
aVF,482,1.611142,-0.111685
aVF,483,1.614485,-0.115141
aVF,484,1.617827,-0.115068
aVF,485,1.62117,-0.114316
aVF,486,1.624513,-0.114409
aVF,487,1.627855,-0.115731
aVF,488,1.631198,-0.117276
aVF,489,1.63454,-0.117112
aVF,490,1.637883,-0.10992
aVF,491,1.641226,-0.090249
aVF,492,1.644568,-0.06598
aVF,493,1.647911,-0.041738
aVF,494,1.651253,-0.002496
aVF,495,1.654596,0.050329
aVF,496,1.657939,0.103226
aVF,497,1.661281,0.156274
aVF,498,1.664624,0.200352
aVF,499,1.667967,0.234775
aVF,500,1.671309,0.269845
aVF,501,1.674652,0.266073
aVF,502,1.677994,0.147359
aVF,503,1.681337,-0.082253
aVF,504,1.68468,-0.30549
aVF,505,1.688022,-0.47405
aVF,506,1.691365,-0.653013
aVF,507,1.694708,-0.789517
aVF,508,1.69805,-0.774333
aVF,509,1.701393,-0.672683
aVF,510,1.704735,-0.575033
aVF,511,1.708078,-0.46417
aVF,512,1.711421,-0.345085
aVF,513,1.714763,-0.260222
aVF,514,1.718106,-0.212563
aVF,515,1.721448,-0.183853
aVF,516,1.724791,-0.166148
aVF,517,1.728134,-0.156955
aVF,518,1.731476,-0.154886
aVF,519,1.734819,-0.155804
aVF,520,1.738162,-0.154964
aVF,521,1.741504,-0.151616
aVF,522,1.744847,-0.145894
aVF,523,1.748189,-0.139011
aVF,524,1.751532,-0.134385
aVF,525,1.754875,-0.132714
aVF,526,1.758217,-0.128677
aVF,527,1.76156,-0.119414
aVF,528,1.764903,-0.109959
aVF,529,1.768245,-0.104134
aVF,530,1.771588,-0.100593
aVF,531,1.77493,-0.100025
aVF,532,1.778273,-0.105754
aVF,533,1.781616,-0.113311
aVF,534,1.784958,-0.116072
aVF,535,1.788301,-0.118562
aVF,536,1.791643,-0.123456
aVF,537,1.794986,-0.125854
aVF,538,1.798329,-0.126801
aVF,539,1.801671,-0.129691
aVF,540,1.805014,-0.132138
aVF,541,1.808357,-0.131274
aVF,542,1.811699,-0.128323
aVF,543,1.815042,-0.125842
aVF,544,1.818384,-0.124667
aVF,545,1.821727,-0.123862
aVF,546,1.82507,-0.121726
aVF,547,1.828412,-0.119217
aVF,548,1.831755,-0.120009
aVF,549,1.835097,-0.123263
aVF,550,1.83844,-0.124402
aVF,551,1.841783,-0.123507
aVF,552,1.845125,-0.123789
aVF,553,1.848468,-0.124807
aVF,554,1.851811,-0.123198
aVF,555,1.855153,-0.118793
aVF,556,1.858496,-0.115482
aVF,557,1.861838,-0.114406
aVF,558,1.865181,-0.112632
aVF,559,1.868524,-0.109724
aVF,560,1.871866,-0.107892
aVF,561,1.875209,-0.10718
aVF,562,1.878552,-0.106053
aVF,563,1.881894,-0.102905
aVF,564,1.885237,-0.097099
aVF,565,1.888579,-0.09195
aVF,566,1.891922,-0.092032
aVF,567,1.895265,-0.097362
aVF,568,1.898607,-0.104315
aVF,569,1.90195,-0.109582
aVF,570,1.905292,-0.111999
aVF,571,1.908635,-0.110737
aVF,572,1.911978,-0.103813
aVF,573,1.91532,-0.0928
aVF,574,1.918663,-0.081021
aVF,575,1.922006,-0.068606
aVF,576,1.925348,-0.056871
aVF,577,1.928691,-0.046992
aVF,578,1.932033,-0.038929
aVF,579,1.935376,-0.034724
aVF,580,1.938719,-0.033807
aVF,581,1.942061,-0.033235
aVF,582,1.945404,-0.032849
aVF,583,1.948747,-0.033477
aVF,584,1.952089,-0.032338
aVF,585,1.955432,-0.026476
aVF,586,1.958774,-0.018103
aVF,587,1.962117,-0.010183
aVF,588,1.96546,-0.005703
aVF,589,1.968802,-0.007676
aVF,590,1.972145,-0.012909
aVF,591,1.975487,-0.018236
aVF,592,1.97883,-0.021893
aVF,593,1.982173,-0.021352
aVF,594,1.985515,-0.03112
aVF,595,1.988858,-0.060006
aVF,596,1.992201,-0.081708
aVF,597,1.995543,-0.08587
aVF,598,1.998886,-0.095354
aVF,599,2.002228,-0.109958
aVF,600,2.005571,-0.111792
aVF,601,2.008914,-0.106137
aVF,602,2.012256,-0.103495
aVF,603,2.015599,-0.102281
aVF,604,2.018942,-0.102857
aVF,605,2.022284,-0.105895
aVF,606,2.025627,-0.107951
aVF,607,2.028969,-0.108044
aVF,608,2.032312,-0.106862
aVF,609,2.035655,-0.103152
aVF,610,2.038997,-0.097616
aVF,611,2.04234,-0.094673
aVF,612,2.045682,-0.096663
aVF,613,2.049025,-0.100365
aVF,614,2.052368,-0.10144
aVF,615,2.05571,-0.099804
aVF,616,2.059053,-0.097838
aVF,617,2.062396,-0.097055
aVF,618,2.065738,-0.099101
aVF,619,2.069081,-0.104874
aVF,620,2.072423,-0.111997
aVF,621,2.075766,-0.116067
aVF,622,2.079109,-0.114159
aVF,623,2.082451,-0.107199
aVF,624,2.085794,-0.098681
aVF,625,2.089136,-0.092321
aVF,626,2.092479,-0.091201
aVF,627,2.095822,-0.094951
aVF,628,2.099164,-0.099087
aVF,629,2.102507,-0.100216
aVF,630,2.10585,-0.097889
aVF,631,2.109192,-0.091401
aVF,632,2.112535,-0.081603
aVF,633,2.115877,-0.074558
aVF,634,2.11922,-0.074192
aVF,635,2.122563,-0.076012
aVF,636,2.125905,-0.076244
aVF,637,2.129248,-0.075487
aVF,638,2.132591,-0.071865
aVF,639,2.135933,-0.063534
aVF,640,2.139276,-0.052857
aVF,641,2.142618,-0.043316
aVF,642,2.145961,-0.037354
aVF,643,2.149304,-0.034085
aVF,644,2.152646,-0.032743
aVF,645,2.155989,-0.036734
aVF,646,2.159331,-0.042873
aVF,647,2.162674,-0.043874
aVF,648,2.166017,-0.042435
aVF,649,2.169359,-0.042035
aVF,650,2.172702,-0.040382
aVF,651,2.176045,-0.037667
aVF,652,2.179387,-0.035041
aVF,653,2.18273,-0.031475
aVF,654,2.186072,-0.027419
aVF,655,2.189415,-0.024259
aVF,656,2.192758,-0.022516
aVF,657,2.1961,-0.023173
aVF,658,2.199443,-0.024652
aVF,659,2.202786,-0.024183
aVF,660,2.206128,-0.023351
aVF,661,2.209471,-0.022555
aVF,662,2.212813,-0.0184
aVF,663,2.216156,-0.011549
aVF,664,2.219499,-0.006616
aVF,665,2.222841,-0.005011
aVF,666,2.226184,-0.004636
aVF,667,2.229526,-0.003663
aVF,668,2.232869,-0.001548
aVF,669,2.236212,0.001557
aVF,670,2.239554,0.006605
aVF,671,2.242897,0.014529
aVF,672,2.24624,0.020701
aVF,673,2.249582,0.019003
aVF,674,2.252925,0.011482
aVF,675,2.256267,0.003366
aVF,676,2.25961,-0.003295
aVF,677,2.262953,-0.006719
aVF,678,2.266295,-0.006496
aVF,679,2.269638,-0.002716
aVF,680,2.272981,0.005506
aVF,681,2.276323,0.014883
aVF,682,2.279666,0.020547
aVF,683,2.283008,0.021862
aVF,684,2.286351,0.020677
aVF,685,2.289694,0.019433
aVF,686,2.293036,0.019687
aVF,687,2.296379,0.020915
aVF,688,2.299721,0.021943
aVF,689,2.303064,0.02126
aVF,690,2.306407,0.017661
aVF,691,2.309749,0.012603
aVF,692,2.313092,0.008504
aVF,693,2.316435,0.005824
aVF,694,2.319777,0.004694
aVF,695,2.32312,0.006158
aVF,696,2.326462,0.010766
aVF,697,2.329805,0.017703
aVF,698,2.333148,0.026142
aVF,699,2.33649,0.036175
aVF,700,2.339833,0.042842
aVF,701,2.343175,0.037452
aVF,702,2.346518,0.024012
aVF,703,2.349861,0.013634
aVF,704,2.353203,0.006566
aVF,705,2.356546,0.003215
aVF,706,2.359889,0.007223
aVF,707,2.363231,0.014673
aVF,708,2.366574,0.022728
aVF,709,2.369916,0.028998
aVF,710,2.373259,0.028007
aVF,711,2.376602,0.021683
aVF,712,2.379944,0.014999
aVF,713,2.383287,0.009954
aVF,714,2.38663,0.009597
aVF,715,2.389972,0.014654
aVF,716,2.393315,0.020785
aVF,717,2.396657,0.02471
V1,0,0.0,-0.045712
V1,1,0.003343,-0.060878
V1,2,0.006685,-0.124521
V1,3,0.010028,-0.150336
V1,4,0.01337,-0.133256
V1,5,0.016713,-0.127581
V1,6,0.020056,-0.126
V1,7,0.023398,-0.125556
V1,8,0.026741,-0.136413
V1,9,0.030084,-0.145895
V1,10,0.033426,-0.142761
V1,11,0.036769,-0.135768
V1,12,0.040111,-0.131164
V1,13,0.043454,-0.125875
V1,14,0.046797,-0.119513
V1,15,0.050139,-0.111162
V1,16,0.053482,-0.099503
V1,17,0.056825,-0.087773
V1,18,0.060167,-0.082759
V1,19,0.06351,-0.09078
V1,20,0.066852,-0.107459
V1,21,0.070195,-0.118509
V1,22,0.073538,-0.119773
V1,23,0.07688,-0.118146
V1,24,0.080223,-0.114319
V1,25,0.083565,-0.107518
V1,26,0.086908,-0.100877
V1,27,0.090251,-0.091875
V1,28,0.093593,-0.079455
V1,29,0.096936,-0.070327
V1,30,0.100279,-0.067718
V1,31,0.103621,-0.069624
V1,32,0.106964,-0.073529
V1,33,0.110306,-0.076872
V1,34,0.113649,-0.078698
V1,35,0.116992,-0.08085
V1,36,0.120334,-0.086282
V1,37,0.123677,-0.094764
V1,38,0.127019,-0.101904
V1,39,0.130362,-0.102934
V1,40,0.133705,-0.096138
V1,41,0.137047,-0.085346
V1,42,0.14039,-0.077609
V1,43,0.143733,-0.076805
V1,44,0.147075,-0.079885
V1,45,0.150418,-0.07901
V1,46,0.15376,-0.070241
V1,47,0.157103,-0.05808
V1,48,0.160446,-0.051033
V1,49,0.163788,-0.054788
V1,50,0.167131,-0.064787
V1,51,0.170474,-0.068755
V1,52,0.173816,-0.061115
V1,53,0.177159,-0.048912
V1,54,0.180501,-0.043443
V1,55,0.183844,-0.050047
V1,56,0.187187,-0.063401
V1,57,0.190529,-0.071409
V1,58,0.193872,-0.067732
V1,59,0.197214,-0.058851
V1,60,0.200557,-0.055352
V1,61,0.2039,-0.060665
V1,62,0.207242,-0.068675
V1,63,0.210585,-0.070619
V1,64,0.213928,-0.062915
V1,65,0.21727,-0.041696
V1,66,0.220613,-0.011567
V1,67,0.223955,0.01276
V1,68,0.227298,0.060848
V1,69,0.230641,0.18905
V1,70,0.233983,0.383142
V1,71,0.237326,0.555834
V1,72,0.240669,0.669774
V1,73,0.244011,0.731663
V1,74,0.247354,0.624659
V1,75,0.250696,0.317887
V1,76,0.254039,-0.055995
V1,77,0.257382,-0.500464
V1,78,0.260724,-0.885714
V1,79,0.264067,-0.991614
V1,80,0.267409,-0.944391
V1,81,0.270752,-0.845936
V1,82,0.274095,-0.63234
V1,83,0.277437,-0.396265
V1,84,0.28078,-0.231523
V1,85,0.284123,-0.104716
V1,86,0.287465,-0.01175
V1,87,0.290808,0.042797
V1,88,0.29415,0.09756
V1,89,0.297493,0.148037
V1,90,0.300836,0.166139
V1,91,0.304178,0.161466
V1,92,0.307521,0.150714
V1,93,0.310864,0.147017
V1,94,0.314206,0.159353
V1,95,0.317549,0.177022
V1,96,0.320891,0.182548
V1,97,0.324234,0.17242
V1,98,0.327577,0.158407
V1,99,0.330919,0.155465
V1,100,0.334262,0.168776
V1,101,0.337604,0.187077
V1,102,0.340947,0.192389
V1,103,0.34429,0.181263
V1,104,0.347632,0.168517
V1,105,0.350975,0.169331
V1,106,0.354318,0.186115
V1,107,0.35766,0.207542
V1,108,0.361003,0.216682
V1,109,0.364345,0.208714
V1,110,0.367688,0.196661
V1,111,0.371031,0.195589
V1,112,0.374373,0.209235
V1,113,0.377716,0.227676
V1,114,0.381058,0.234453
V1,115,0.384401,0.22507
V1,116,0.387744,0.213864
V1,117,0.391086,0.216966
V1,118,0.394429,0.236251
V1,119,0.397772,0.257852
V1,120,0.401114,0.262811
V1,121,0.404457,0.246874
V1,122,0.407799,0.228673
V1,123,0.411142,0.2302
V1,124,0.414485,0.254053
V1,125,0.417827,0.283189
V1,126,0.42117,0.294188
V1,127,0.424513,0.279508
V1,128,0.427855,0.261546
V1,129,0.431198,0.267504
V1,130,0.43454,0.298351
V1,131,0.437883,0.332917
V1,132,0.441226,0.348994
V1,133,0.444568,0.341744
V1,134,0.447911,0.328988
V1,135,0.451253,0.33363
V1,136,0.454596,0.36074
V1,137,0.457939,0.393918
V1,138,0.461281,0.409652
V1,139,0.464624,0.401006
V1,140,0.467967,0.390185
V1,141,0.471309,0.404299
V1,142,0.474652,0.443511
V1,143,0.477994,0.4826
V1,144,0.481337,0.494535
V1,145,0.48468,0.475008
V1,146,0.488022,0.450825
V1,147,0.491365,0.454209
V1,148,0.494708,0.487942
V1,149,0.49805,0.523668
V1,150,0.501393,0.531003
V1,151,0.504735,0.50817
V1,152,0.508078,0.484797
V1,153,0.511421,0.491073
V1,154,0.514763,0.527746
V1,155,0.518106,0.566082
V1,156,0.521448,0.575146
V1,157,0.524791,0.551295
V1,158,0.528134,0.519815
V1,159,0.531476,0.512861
V1,160,0.534819,0.528316
V1,161,0.538162,0.53976
V1,162,0.541504,0.552044
V1,163,0.544847,0.475414
V1,164,0.548189,0.399794
V1,165,0.551532,0.563076
V1,166,0.554875,0.215704
V1,167,0.558217,-0.829794
V1,168,0.56156,-0.847126
V1,169,0.564903,0.143006
V1,170,0.568245,0.429749
V1,171,0.571588,0.224563
V1,172,0.57493,0.248649
V1,173,0.578273,0.271238
V1,174,0.581616,0.226568
V1,175,0.584958,0.186533
V1,176,0.588301,0.135112
V1,177,0.591643,0.117263
V1,178,0.594986,0.134461
V1,179,0.598329,0.141958
V1,180,0.601671,0.119326
V1,181,0.605014,0.072723
V1,182,0.608357,0.031059
V1,183,0.611699,0.024883
V1,184,0.615042,0.050264
V1,185,0.618384,0.073621
V1,186,0.621727,0.067743
V1,187,0.62507,0.035563
V1,188,0.628412,0.005571
V1,189,0.631755,0.002363
V1,190,0.635097,0.018299
V1,191,0.63844,0.030099
V1,192,0.641783,0.027318
V1,193,0.645125,0.010513
V1,194,0.648468,-0.003892
V1,195,0.651811,0.006568
V1,196,0.655153,0.037168
V1,197,0.658496,0.05943
V1,198,0.661838,0.052802
V1,199,0.665181,0.024355
V1,200,0.668524,0.001347
V1,201,0.671866,0.004151
V1,202,0.675209,0.028326
V1,203,0.678552,0.050022
V1,204,0.681894,0.049712
V1,205,0.685237,0.031845
V1,206,0.688579,0.014638
V1,207,0.691922,0.010643
V1,208,0.695265,0.02198
V1,209,0.698607,0.035863
V1,210,0.70195,0.034448
V1,211,0.705292,0.019633
V1,212,0.708635,0.009179
V1,213,0.711978,0.014599
V1,214,0.71532,0.032724
V1,215,0.718663,0.046542
V1,216,0.722006,0.040716
V1,217,0.725348,0.019082
V1,218,0.728691,-0.00395
V1,219,0.732033,-0.012047
V1,220,0.735376,0.002812
V1,221,0.738719,0.020418
V1,222,0.742061,0.015169
V1,223,0.745404,-0.008578
V1,224,0.748747,-0.027946
V1,225,0.752089,-0.029656
V1,226,0.755432,-0.018417
V1,227,0.758774,-0.007822
V1,228,0.762117,-0.009027
V1,229,0.76546,-0.020558
V1,230,0.768802,-0.028386
V1,231,0.772145,-0.02341
V1,232,0.775487,-0.011803
V1,233,0.77883,-0.006455
V1,234,0.782173,-0.016035
V1,235,0.785515,-0.037237
V1,236,0.788858,-0.053984
V1,237,0.792201,-0.053368
V1,238,0.795543,-0.041038
V1,239,0.798886,-0.03266
V1,240,0.802228,-0.035549
V1,241,0.805571,-0.045075
V1,242,0.808914,-0.053243
V1,243,0.812256,-0.054582
V1,244,0.815599,-0.051147
V1,245,0.818942,-0.053696
V1,246,0.822284,-0.067336
V1,247,0.825627,-0.083271
V1,248,0.828969,-0.089431
V1,249,0.832312,-0.080146
V1,250,0.835655,-0.061554
V1,251,0.838997,-0.048887
V1,252,0.84234,-0.051692
V1,253,0.845682,-0.065879
V1,254,0.849025,-0.080075
V1,255,0.852368,-0.085483
V1,256,0.85571,-0.08221
V1,257,0.859053,-0.078919
V1,258,0.862396,-0.084123
V1,259,0.865738,-0.095143
V1,260,0.869081,-0.099968
V1,261,0.872423,-0.093271
V1,262,0.875766,-0.082059
V1,263,0.879109,-0.074954
V1,264,0.882451,-0.076251
V1,265,0.885794,-0.084521
V1,266,0.889136,-0.090744
V1,267,0.892479,-0.087945
V1,268,0.895822,-0.080018
V1,269,0.899164,-0.074885
V1,270,0.902507,-0.081167
V1,271,0.90585,-0.101859
V1,272,0.909192,-0.120327
V1,273,0.912535,-0.11985
V1,274,0.915877,-0.108495
V1,275,0.91922,-0.101283
V1,276,0.922563,-0.101934
V1,277,0.925905,-0.107232
V1,278,0.929248,-0.112974
V1,279,0.932591,-0.115841
V1,280,0.935933,-0.114726
V1,281,0.939276,-0.114073
V1,282,0.942618,-0.118968
V1,283,0.945961,-0.125821
V1,284,0.949304,-0.127074
V1,285,0.952646,-0.121231
V1,286,0.955989,-0.114783
V1,287,0.959331,-0.116684
V1,288,0.962674,-0.129477
V1,289,0.966017,-0.146182
V1,290,0.969359,-0.155277
V1,291,0.972702,-0.150464
V1,292,0.976045,-0.137022
V1,293,0.979387,-0.126212
V1,294,0.98273,-0.125326
V1,295,0.986072,-0.131603
V1,296,0.989415,-0.135814
V1,297,0.992758,-0.134873
V1,298,0.9961,-0.134279
V1,299,0.999443,-0.138214
V1,300,1.002786,-0.146016
V1,301,1.006128,-0.154389
V1,302,1.009471,-0.158436
V1,303,1.012813,-0.154842
V1,304,1.016156,-0.145779
V1,305,1.019499,-0.140009
V1,306,1.022841,-0.145586
V1,307,1.026184,-0.157796
V1,308,1.029526,-0.163899
V1,309,1.032869,-0.160164
V1,310,1.036212,-0.153323
V1,311,1.039554,-0.149389
V1,312,1.042897,-0.148796
V1,313,1.04624,-0.148956
V1,314,1.049582,-0.14633
V1,315,1.052925,-0.13922
V1,316,1.056267,-0.133839
V1,317,1.05961,-0.139194
V1,318,1.062953,-0.154582
V1,319,1.066295,-0.17107
V1,320,1.069638,-0.182756
V1,321,1.072981,-0.190812
V1,322,1.076323,-0.195361
V1,323,1.079666,-0.196288
V1,324,1.083008,-0.19905
V1,325,1.086351,-0.204053
V1,326,1.089694,-0.204984
V1,327,1.093036,-0.19996
V1,328,1.096379,-0.192812
V1,329,1.099721,-0.189225
V1,330,1.103064,-0.191878
V1,331,1.106407,-0.196228
V1,332,1.109749,-0.195037
V1,333,1.113092,-0.187632
V1,334,1.116435,-0.180087
V1,335,1.119777,-0.178541
V1,336,1.12312,-0.18617
V1,337,1.126462,-0.199038
V1,338,1.129805,-0.205681
V1,339,1.133148,-0.200489
V1,340,1.13649,-0.189997
V1,341,1.139833,-0.182643
V1,342,1.143175,-0.181817
V1,343,1.146518,-0.18473
V1,344,1.149861,-0.185064
V1,345,1.153203,-0.181038
V1,346,1.156546,-0.176602
V1,347,1.159889,-0.177447
V1,348,1.163231,-0.186644
V1,349,1.166574,-0.194307
V1,350,1.169916,-0.182718
V1,351,1.173259,-0.147364
V1,352,1.176602,-0.085795
V1,353,1.179944,0.044343
V1,354,1.183287,0.260793
V1,355,1.18663,0.450703
V1,356,1.189972,0.558038
V1,357,1.193315,0.588903
V1,358,1.196657,0.421687
V1,359,1.2,0.069811
V1,360,1.203343,-0.312024
V1,361,1.206685,-0.611469
V1,362,1.210028,-0.871431
V1,363,1.21337,-1.194779
V1,364,1.216713,-1.308053
V1,365,1.220056,-1.079986
V1,366,1.223398,-0.814151
V1,367,1.226741,-0.6097
V1,368,1.230084,-0.419081
V1,369,1.233426,-0.264627
V1,370,1.236769,-0.157397
V1,371,1.240111,-0.10132
V1,372,1.243454,-0.076741
V1,373,1.246797,-0.05959
V1,374,1.250139,-0.044719
V1,375,1.253482,-0.032157
V1,376,1.256825,-0.024435
V1,377,1.260167,-0.022526
V1,378,1.26351,-0.02351
V1,379,1.266852,-0.02276
V1,380,1.270195,-0.017191
V1,381,1.273538,-0.008502
V1,382,1.27688,-0.001396
V1,383,1.280223,-0.001096
