lead,sample,time_s,mv
I,0,0.0,0.465619
I,1,0.00355,0.440326
I,2,0.0071,0.510106
I,3,0.01065,0.404857
I,4,0.0142,0.090531
I,5,0.01775,-0.023425
I,6,0.0213,0.025626
I,7,0.02485,0.009566
I,8,0.0284,0.007465
I,9,0.03195,0.025309
I,10,0.0355,0.024185
I,11,0.03905,0.018228
I,12,0.0426,0.007498
I,13,0.04615,0.003489
I,14,0.0497,0.010412
I,15,0.05325,0.018184
I,16,0.0568,0.017722
I,17,0.06036,0.008747
I,18,0.06391,0.000418
I,19,0.06746,0.001012
I,20,0.07101,0.008592
I,21,0.07456,0.013685
I,22,0.07811,0.009914
I,23,0.08166,0.000897
I,24,0.08521,-0.004081
I,25,0.08876,-0.000496
I,26,0.09231,0.006612
I,27,0.09586,0.008535
I,28,0.09941,0.002607
I,29,0.10296,-0.005087
I,30,0.10651,-0.00672
I,31,0.11006,-0.001397
I,32,0.11361,0.004113
I,33,0.11716,0.003103
I,34,0.12071,-0.0037
I,35,0.12426,-0.009204
I,36,0.12781,-0.007987
I,37,0.13136,-0.002197
I,38,0.13491,0.001084
I,39,0.13846,-0.002189
I,40,0.14201,-0.008688
I,41,0.14556,-0.01164
I,42,0.14911,-0.008404
I,43,0.15266,-0.003223
I,44,0.15621,-0.002309
I,45,0.15976,-0.006935
I,46,0.16331,-0.012221
I,47,0.16686,-0.012721
I,48,0.17041,-0.008437
I,49,0.17396,-0.004616
I,50,0.17751,-0.00579
I,51,0.18107,-0.010816
I,52,0.18462,-0.014341
I,53,0.18817,-0.012844
I,54,0.19172,-0.008441
I,55,0.19527,-0.006353
I,56,0.19882,-0.00905
I,57,0.20237,-0.013635
I,58,0.20592,-0.015228
I,59,0.20947,-0.012403
I,60,0.21302,-0.008633
I,61,0.21657,-0.008291
I,62,0.22012,-0.011807
I,63,0.22367,-0.015339
I,64,0.22722,-0.015157
I,65,0.23077,-0.011739
I,66,0.23432,-0.009093
I,67,0.23787,-0.01022
I,68,0.24142,-0.013851
I,69,0.24497,-0.015997
I,70,0.24852,-0.014439
I,71,0.25207,-0.0111
I,72,0.25562,-0.009782
I,73,0.25917,-0.011916
I,74,0.26272,-0.015073
I,75,0.26627,-0.015778
I,76,0.26982,-0.01337
I,77,0.27337,-0.010627
I,78,0.27692,-0.010584
I,79,0.28047,-0.013187
I,80,0.28402,-0.015465
I,81,0.28757,-0.014904
I,82,0.29112,-0.012196
I,83,0.29467,-0.010361
I,84,0.29822,-0.01134
I,85,0.30178,-0.013902
I,86,0.30533,-0.01511
I,87,0.30888,-0.013618
I,88,0.31243,-0.01109
I,89,0.31598,-0.010262
I,90,0.31953,-0.011894
I,91,0.32308,-0.014005
I,92,0.32663,-0.014153
I,93,0.33018,-0.012139
I,94,0.33373,-0.010142
I,95,0.33728,-0.010236
I,96,0.34083,-0.012116
I,97,0.34438,-0.013516
I,98,0.34793,-0.012776
I,99,0.35148,-0.010645
I,100,0.35503,-0.00937
I,101,0.35858,-0.010168
I,102,0.36213,-0.011928
I,103,0.36568,-0.012517
I,104,0.36923,-0.011162
I,105,0.37278,-0.009253
I,106,0.37633,-0.008735
I,107,0.37988,-0.009946
I,108,0.38343,-0.011309
I,109,0.38698,-0.011131
I,110,0.39053,-0.009475
I,111,0.39408,-0.008021
I,112,0.39763,-0.008164
I,113,0.40118,-0.009488
I,114,0.40473,-0.010291
I,115,0.40828,-0.009502
I,116,0.41183,-0.007838
I,117,0.41538,-0.006951
I,118,0.41893,-0.007573
I,119,0.42249,-0.00875
I,120,0.42604,-0.008949
I,121,0.42959,-0.007767
I,122,0.43314,-0.006332
I,123,0.43669,-0.006009
I,124,0.44024,-0.006887
I,125,0.44379,-0.00773
I,126,0.44734,-0.007384
I,127,0.45089,-0.006045
I,128,0.45444,-0.004991
I,129,0.45799,-0.00514
I,130,0.46154,-0.006053
I,131,0.46509,-0.006464
I,132,0.46864,-0.005708
I,133,0.47219,-0.004423
I,134,0.47574,-0.003809
I,135,0.47929,-0.004282
I,136,0.48284,-0.005048
I,137,0.48639,-0.005018
I,138,0.48994,-0.004021
I,139,0.49349,-0.002954
I,140,0.49704,-0.002759
I,141,0.50059,-0.003385
I,142,0.50414,-0.00388
I,143,0.50769,-0.003472
I,144,0.51124,-0.002411
I,145,0.51479,-0.001655
I,146,0.51834,-0.001795
I,147,0.52189,-0.002415
I,148,0.52544,-0.002586
I,149,0.52899,-0.00191
I,150,0.53254,-0.000934
I,151,0.53609,-0.000518
I,152,0.53964,-0.000875
I,153,0.5432,-0.001362
I,154,0.54675,-0.001218
I,155,0.5503,-0.000405
I,156,0.55385,0.000375
I,157,0.5574,0.000482
I,158,0.56095,3.6e-05
I,159,0.5645,-0.000239
I,160,0.56805,0.000162
I,161,0.5716,0.000983
I,162,0.57515,0.001511
I,163,0.5787,0.00138
I,164,0.58225,0.00096
I,165,0.5858,0.000923
I,166,0.58935,0.001493
I,167,0.5929,0.002215
I,168,0.59645,0.002483
I,169,0.6,0.002207
I,170,0.60355,0.001899
I,171,0.6071,0.002083
I,172,0.61065,0.002721
I,173,0.6142,0.003274
I,174,0.61775,0.003313
I,175,0.6213,0.002989
I,176,0.62485,0.002841
I,177,0.6284,0.003194
I,178,0.63195,0.003807
I,179,0.6355,0.004158
I,180,0.63905,0.00403
I,181,0.6426,0.003738
I,182,0.64615,0.003761
I,183,0.6497,0.004214
I,184,0.65325,0.004728
I,185,0.6568,0.004881
I,186,0.66036,0.004657
I,187,0.66391,0.004454
I,188,0.66746,0.004629
I,189,0.67101,0.005105
I,190,0.67456,0.005476
I,191,0.67811,0.005462
I,192,0.68166,0.005212
I,193,0.68521,0.005128
I,194,0.68876,0.00541
I,195,0.69231,0.005845
I,196,0.69586,0.006056
I,197,0.69941,0.005923
I,198,0.70296,0.005705
I,199,0.70651,0.005741
I,200,0.71006,0.006076
I,201,0.71361,0.00642
I,202,0.71716,0.00648
I,203,0.72071,0.006284
I,204,0.72426,0.006136
I,205,0.72781,0.006272
I,206,0.73136,0.006605
I,207,0.73491,0.00683
I,208,0.73846,0.006768
I,209,0.74201,0.00656
I,210,0.74556,0.006497
I,211,0.74911,0.006699
I,212,0.75266,0.006983
I,213,0.75621,0.007083
I,214,0.75976,0.006938
I,215,0.76331,0.006757
I,216,0.76686,0.006778
I,217,0.77041,0.007002
I,218,0.77396,0.007207
I,219,0.77751,0.007193
I,220,0.78107,0.007007
I,221,0.78462,0.006879
I,222,0.78817,0.006963
I,223,0.79172,0.007172
I,224,0.79527,0.00728
I,225,0.79882,0.007177
I,226,0.80237,0.006987
I,227,0.80592,0.00692
I,228,0.80947,0.00704
I,229,0.81302,0.007201
I,230,0.81657,0.007212
I,231,0.82012,0.007052
I,232,0.82367,0.006885
I,233,0.82722,0.006874
I,234,0.83077,0.007
I,235,0.83432,0.007093
I,236,0.83787,0.007019
I,237,0.84142,0.006833
I,238,0.84497,0.006705
I,239,0.84852,0.006734
I,240,0.85207,0.006838
I,241,0.85562,0.006854
I,242,0.85917,0.006717
I,243,0.86272,0.006531
I,244,0.86627,0.006446
I,245,0.86982,0.006494
I,246,0.87337,0.006555
I,247,0.87692,0.006497
I,248,0.88047,0.006321
I,249,0.88402,0.006154
I,250,0.88757,0.006107
I,251,0.89112,0.006151
I,252,0.89467,0.006156
I,253,0.89822,0.006036
I,254,0.90178,0.005845
I,255,0.90533,0.005708
I,256,0.90888,0.005685
I,257,0.91243,0.005705
I,258,0.91598,0.005651
I,259,0.91953,0.005488
I,260,0.92308,0.0053
I,261,0.92663,0.005194
I,262,0.93018,0.005179
I,263,0.93373,0.005162
I,264,0.93728,0.005054
I,265,0.94083,0.004866
I,266,0.94438,0.004695
I,267,0.94793,0.004613
I,268,0.95148,0.004591
I,269,0.95503,0.004531
I,270,0.95858,0.004379
I,271,0.96213,0.004183
I,272,0.96568,0.004035
I,273,0.96923,0.003969
I,274,0.97278,0.003926
I,275,0.97633,0.003822
I,276,0.97988,0.003641
I,277,0.98343,0.003451
I,278,0.98698,0.003325
I,279,0.99053,0.003263
I,280,0.99408,0.003191
I,281,0.99763,0.003049
I,282,1.00118,0.002853
I,283,1.00473,0.002678
I,284,1.00828,0.002571
I,285,1.01183,0.0025
I,286,1.01538,0.002396
I,287,1.01893,0.002225
I,288,1.02249,0.002028
I,289,1.02604,0.001872
I,290,1.02959,0.001775
I,291,1.03314,0.001688
I,292,1.03669,0.001553
I,293,1.04024,0.001365
I,294,1.04379,0.001177
I,295,1.04734,0.001039
I,296,1.05089,0.000943
I,297,1.05444,0.000836
I,298,1.05799,0.000676
I,299,1.06154,0.000482
I,300,1.06509,0.000308
I,301,1.06864,0.000184
I,302,1.07219,8.3e-05
I,303,1.07574,-4.7e-05
I,304,1.07929,-0.000224
I,305,1.08284,-0.000414
I,306,1.08639,-0.000571
I,307,1.08994,-0.000686
I,308,1.09349,-0.000798
I,309,1.09704,-0.000947
I,310,1.10059,-0.001132
I,311,1.10414,-0.001312
I,312,1.10769,-0.001453
I,313,1.11124,-0.001565
I,314,1.11479,-0.00169
I,315,1.11834,-0.001854
I,316,1.12189,-0.002038
I,317,1.12544,-0.002203
I,318,1.12899,-0.002331
I,319,1.13254,-0.002446
I,320,1.13609,-0.002583
I,321,1.13964,-0.002754
I,322,1.1432,-0.002931
I,323,1.14675,-0.00308
I,324,1.1503,-0.003199
I,325,1.15385,-0.003318
I,326,1.1574,-0.003466
I,327,1.16095,-0.003637
I,328,1.1645,-0.003801
I,329,1.16805,-0.003935
I,330,1.1716,-0.004049
I,331,1.17515,-0.004175
I,332,1.1787,-0.004328
I,333,1.18225,-0.004493
I,334,1.1858,-0.004641
I,335,1.18935,-0.004761
I,336,1.1929,-0.004874
I,337,1.19645,-0.005004
I,338,1.2,-0.005158
I,339,1.20355,-0.005311
I,340,1.2071,-0.005443
I,341,1.21065,-0.005553
I,342,1.2142,-0.005665
I,343,1.21775,-0.005798
I,344,1.2213,-0.005946
I,345,1.22485,-0.006085
I,346,1.2284,-0.006201
I,347,1.23195,-0.006303
I,348,1.2355,-0.006416
I,349,1.23905,-0.006547
I,350,1.2426,-0.006684
I,351,1.24615,-0.006806
I,352,1.2497,-0.006908
I,353,1.25325,-0.007005
I,354,1.2568,-0.007116
I,355,1.26036,-0.007241
I,356,1.26391,-0.007364
I,357,1.26746,-0.007469
I,358,1.27101,-0.007559
I,359,1.27456,-0.007652
I,360,1.27811,-0.007758
I,361,1.28166,-0.007874
I,362,1.28521,-0.00798
I,363,1.28876,-0.008069
I,364,1.29231,-0.008149
I,365,1.29586,-0.008236
I,366,1.29941,-0.008336
I,367,1.30296,-0.008437
I,368,1.30651,-0.008526
I,369,1.31006,-0.0086
I,370,1.31361,-0.00867
I,371,1.31716,-0.008751
I,372,1.32071,-0.008841
I,373,1.32426,-0.008926
I,374,1.32781,-0.008997
I,375,1.33136,-0.009057
I,376,1.33491,-0.009119
I,377,1.33846,-0.009192
I,378,1.34201,-0.009268
I,379,1.34556,-0.009336
I,380,1.34911,-0.00939
I,381,1.35266,-0.009438
I,382,1.35621,-0.009491
I,383,1.35976,-0.009552
I,384,1.36331,-0.009613
I,385,1.36686,-0.009662
I,386,1.37041,-0.0097
I,387,1.37396,-0.009737
I,388,1.37751,-0.00978
I,389,1.38107,-0.009828
I,390,1.38462,-0.009871
I,391,1.38817,-0.009903
I,392,1.39172,-0.009926
I,393,1.39527,-0.009951
I,394,1.39882,-0.009983
I,395,1.40237,-0.010016
I,396,1.40592,-0.010041
I,397,1.40947,-0.010055
I,398,1.41302,-0.010065
I,399,1.41657,-0.010079
I,400,1.42012,-0.010097
I,401,1.42367,-0.010113
I,402,1.42722,-0.01012
I,403,1.43077,-0.010118
I,404,1.43432,-0.010115
I,405,1.43787,-0.010117
I,406,1.44142,-0.01012
I,407,1.44497,-0.010119
I,408,1.44852,-0.010108
I,409,1.45207,-0.010091
I,410,1.45562,-0.010076
I,411,1.45917,-0.010064
I,412,1.46272,-0.010052
I,413,1.46627,-0.010033
I,414,1.46982,-0.010005
I,415,1.47337,-0.009974
I,416,1.47692,-0.009946
I,417,1.48047,-0.00992
I,418,1.48402,-0.009892
I,419,1.48757,-0.009855
I,420,1.49112,-0.009812
I,421,1.49467,-0.009768
I,422,1.49822,-0.009727
I,423,1.50178,-0.009686
I,424,1.50533,-0.009641
I,425,1.50888,-0.009588
I,426,1.51243,-0.00953
I,427,1.51598,-0.009474
I,428,1.51953,-0.009419
I,429,1.52308,-0.009363
I,430,1.52663,-0.009302
I,431,1.53018,-0.009234
I,432,1.53373,-0.009163
I,433,1.53728,-0.009094
I,434,1.54083,-0.009026
I,435,1.54438,-0.008955
I,436,1.54793,-0.008878
I,437,1.55148,-0.008796
I,438,1.55503,-0.008713
I,439,1.55858,-0.008632
I,440,1.56213,-0.00855
I,441,1.56568,-0.008464
I,442,1.56923,-0.008373
I,443,1.57278,-0.008278
I,444,1.57633,-0.008184
I,445,1.57988,-0.008091
I,446,1.58343,-0.007996
I,447,1.58698,-0.007897
I,448,1.59053,-0.007792
I,449,1.59408,-0.007686
I,450,1.59763,-0.007582
I,451,1.60118,-0.007477
I,452,1.60473,-0.00737
I,453,1.60828,-0.007258
I,454,1.61183,-0.007142
I,455,1.61538,-0.007026
I,456,1.61893,-0.006912
I,457,1.62249,-0.006796
I,458,1.62604,-0.006678
I,459,1.62959,-0.006555
I,460,1.63314,-0.00643
I,461,1.63669,-0.006305
I,462,1.64024,-0.006181
I,463,1.64379,-0.006056
I,464,1.64734,-0.005927
I,465,1.65089,-0.005795
I,466,1.65444,-0.005662
I,467,1.65799,-0.00553
I,468,1.66154,-0.005398
I,469,1.66509,-0.005264
I,470,1.66864,-0.005127
I,471,1.67219,-0.004988
I,472,1.67574,-0.004848
I,473,1.67929,-0.00471
I,474,1.68284,-0.004572
I,475,1.68639,-0.004431
I,476,1.68994,-0.004287
I,477,1.69349,-0.004143
I,478,1.69704,-0.003999
I,479,1.70059,-0.003856
I,480,1.70414,-0.003712
I,481,1.70769,-0.003566
I,482,1.71124,-0.003418
I,483,1.71479,-0.00327
I,484,1.71834,-0.003124
I,485,1.72189,-0.002978
I,486,1.72544,-0.00283
I,487,1.72899,-0.002681
I,488,1.73254,-0.002531
I,489,1.73609,-0.002382
I,490,1.73964,-0.002235
I,491,1.7432,-0.002087
I,492,1.74675,-0.001939
I,493,1.7503,-0.001789
I,494,1.75385,-0.00164
I,495,1.7574,-0.001492
I,496,1.76095,-0.001345
I,497,1.7645,-0.001198
I,498,1.76805,-0.001051
I,499,1.7716,-0.000903
I,500,1.77515,-0.000757
I,501,1.7787,-0.000612
I,502,1.78225,-0.000468
I,503,1.7858,-0.000325
I,504,1.78935,-0.000181
I,505,1.7929,-3.8e-05
I,506,1.79645,0.000103
I,507,1.8,0.000243
I,508,1.80355,0.00038
I,509,1.8071,0.000518
I,510,1.81065,0.000655
I,511,1.8142,0.000791
I,512,1.81775,0.000924
I,513,1.8213,0.001056
I,514,1.82485,0.001185
I,515,1.8284,0.001314
I,516,1.83195,0.001442
I,517,1.8355,0.001568
I,518,1.83905,0.00169
I,519,1.8426,0.001811
I,520,1.84615,0.001929
I,521,1.8497,0.002047
I,522,1.85325,0.002162
I,523,1.8568,0.002274
I,524,1.86036,0.002383
I,525,1.86391,0.00249
I,526,1.86746,0.002594
I,527,1.87101,0.002697
I,528,1.87456,0.002796
I,529,1.87811,0.002892
I,530,1.88166,0.002984
I,531,1.88521,0.003074
I,532,1.88876,0.003161
I,533,1.89231,0.003245
I,534,1.89586,0.003326
I,535,1.89941,0.003402
I,536,1.90296,0.003474
I,537,1.90651,0.003544
I,538,1.91006,0.00361
I,539,1.91361,0.003672
I,540,1.91716,0.00373
I,541,1.92071,0.003783
I,542,1.92426,0.003832
I,543,1.92781,0.003877
I,544,1.93136,0.003919
I,545,1.93491,0.003956
I,546,1.93846,0.003987
I,547,1.94201,0.004014
I,548,1.94556,0.004036
I,549,1.94911,0.004053
I,550,1.95266,0.004066
I,551,1.95621,0.004074
I,552,1.95976,0.004075
I,553,1.96331,0.004072
I,554,1.96686,0.004063
I,555,1.97041,0.004049
I,556,1.97396,0.004029
I,557,1.97751,0.004003
I,558,1.98107,0.003971
I,559,1.98462,0.003933
I,560,1.98817,0.003889
I,561,1.99172,0.003839
I,562,1.99527,0.003783
I,563,1.99882,0.00372
I,564,2.00237,0.00365
I,565,2.00592,0.003573
I,566,2.00947,0.00349
I,567,2.01302,0.0034
I,568,2.01657,0.003303
I,569,2.02012,0.003198
I,570,2.02367,0.003086
I,571,2.02722,0.002966
I,572,2.03077,0.002839
I,573,2.03432,0.002705
I,574,2.03787,0.002562
I,575,2.04142,0.002411
I,576,2.04497,0.002252
I,577,2.04852,0.002085
I,578,2.05207,0.00191
I,579,2.05562,0.001727
I,580,2.05917,0.001534
I,581,2.06272,0.001332
I,582,2.06627,0.001122
I,583,2.06982,0.000903
I,584,2.07337,0.000675
I,585,2.07692,0.000437
I,586,2.08047,0.00019
I,587,2.08402,-6.7e-05
I,588,2.08757,-0.000333
I,589,2.09112,-0.000609
I,590,2.09467,-0.000896
I,591,2.09822,-0.001192
I,592,2.10178,-0.001499
I,593,2.10533,-0.001816
I,594,2.10888,-0.002144
I,595,2.11243,-0.002482
I,596,2.11598,-0.002832
I,597,2.11953,-0.003192
I,598,2.12308,-0.003564
I,599,2.12663,-0.003946
I,600,2.13018,-0.00434
I,601,2.13373,-0.004746
I,602,2.13728,-0.005164
I,603,2.14083,-0.005593
I,604,2.14438,-0.006035
I,605,2.14793,-0.006488
I,606,2.15148,-0.006954
I,607,2.15503,-0.007433
I,608,2.15858,-0.007924
I,609,2.16213,-0.008428
I,610,2.16568,-0.008947
I,611,2.16923,-0.009471
I,612,2.17278,-0.010023
I,613,2.17633,-0.010577
I,614,2.17988,-0.011124
I,615,2.18343,-0.011782
I,616,2.18698,-0.012258
I,617,2.19053,-0.012183
I,618,2.19408,-0.011914
I,619,2.19763,-0.011743
I,620,2.20118,-0.011554
I,621,2.20473,-0.011356
I,622,2.20828,-0.011175
I,623,2.21183,-0.010987
I,624,2.21538,-0.010804
I,625,2.21893,-0.010624
I,626,2.22249,-0.010446
I,627,2.22604,-0.010271
I,628,2.22959,-0.010098
I,629,2.23314,-0.009928
I,630,2.23669,-0.009761
I,631,2.24024,-0.009598
I,632,2.24379,-0.009438
I,633,2.24734,-0.009281
I,634,2.25089,-0.009127
I,635,2.25444,-0.008977
I,636,2.25799,-0.00883
I,637,2.26154,-0.008688
I,638,2.26509,-0.008549
I,639,2.26864,-0.008414
I,640,2.27219,-0.008284
I,641,2.27574,-0.008158
I,642,2.27929,-0.008036
I,643,2.28284,-0.007918
I,644,2.28639,-0.007806
I,645,2.28994,-0.007697
I,646,2.29349,-0.007594
I,647,2.29704,-0.007496
I,648,2.30059,-0.007403
I,649,2.30414,-0.007315
I,650,2.30769,-0.007233
I,651,2.31124,-0.007156
I,652,2.31479,-0.007084
I,653,2.31834,-0.007018
I,654,2.32189,-0.006959
I,655,2.32544,-0.006905
I,656,2.32899,-0.006857
I,657,2.33254,-0.006816
I,658,2.33609,-0.006781
I,659,2.33964,-0.006753
I,660,2.3432,-0.006731
I,661,2.34675,-0.006716
I,662,2.3503,-0.006708
I,663,2.35385,-0.006707
I,664,2.3574,-0.006713
I,665,2.36095,-0.006727
I,666,2.3645,-0.006748
I,667,2.36805,-0.006776
I,668,2.3716,-0.006813
I,669,2.37515,-0.006857
I,670,2.3787,-0.00691
I,671,2.38225,-0.00697
I,672,2.3858,-0.007039
I,673,2.38935,-0.007117
I,674,2.3929,-0.007203
I,675,2.39645,-0.007298
II,0,0.0,0.162574
II,1,0.00355,0.15347
II,2,0.0071,0.180049
II,3,0.01065,0.140452
II,4,0.0142,0.021584
II,5,0.01775,-0.022667
II,6,0.0213,-0.002206
II,7,0.02485,-0.002622
II,8,0.0284,-0.000885
II,9,0.03195,0.004898
II,10,0.0355,0.004188
II,11,0.03905,0.003191
II,12,0.0426,-0.002502
II,13,0.04615,-0.00929
II,14,0.0497,-0.008497
II,15,0.05325,-0.004692
II,16,0.0568,-0.005309
II,17,0.06036,-0.008599
II,18,0.06391,-0.010573
II,19,0.06746,-0.009836
II,20,0.07101,-0.007096
II,21,0.07456,-0.00448
II,22,0.07811,-0.008174
II,23,0.08166,-0.017144
II,24,0.08521,-0.02034
II,25,0.08876,-0.017247
II,26,0.09231,-0.015154
II,27,0.09586,-0.015109
II,28,0.09941,-0.016145
II,29,0.10296,-0.020357
II,30,0.10651,-0.026021
II,31,0.11006,-0.02702
II,32,0.11361,-0.022154
II,33,0.11716,-0.016898
II,34,0.12071,-0.016961
II,35,0.12426,-0.019085
II,36,0.12781,-0.017679
II,37,0.13136,-0.015495
II,38,0.13491,-0.015321
II,39,0.13846,-0.015353
II,40,0.14201,-0.019023
II,41,0.14556,-0.026473
II,42,0.14911,-0.024915
II,43,0.15266,-0.016014
II,44,0.15621,-0.014321
II,45,0.15976,-0.016851
II,46,0.16331,-0.017434
II,47,0.16686,-0.017752
II,48,0.17041,-0.014236
II,49,0.17396,-0.007246
II,50,0.17751,-0.004595
II,51,0.18107,-0.009366
II,52,0.18462,-0.015573
II,53,0.18817,-0.016541
II,54,0.19172,-0.015128
II,55,0.19527,-0.012579
II,56,0.19882,-0.008363
II,57,0.20237,-0.005046
II,58,0.20592,-0.000166
II,59,0.20947,0.004515
II,60,0.21302,0.002489
II,61,0.21657,-0.003708
II,62,0.22012,-0.006609
II,63,0.22367,-0.006351
II,64,0.22722,-0.005972
II,65,0.23077,-0.004942
II,66,0.23432,-0.00413
II,67,0.23787,-0.004588
II,68,0.24142,-0.005486
II,69,0.24497,-0.005495
II,70,0.24852,-0.004826
II,71,0.25207,-0.004069
II,72,0.25562,-0.00276
II,73,0.25917,-0.00541
II,74,0.26272,-0.012302
II,75,0.26627,-0.01412
II,76,0.26982,-0.012041
II,77,0.27337,-0.012376
II,78,0.27692,-0.01069
II,79,0.28047,-0.00492
II,80,0.28402,-0.001972
II,81,0.28757,-0.005674
II,82,0.29112,-0.008402
II,83,0.29467,-0.004913
II,84,0.29822,0.000135
II,85,0.30178,0.004724
II,86,0.30533,0.006883
II,87,0.30888,0.006787
II,88,0.31243,0.00728
II,89,0.31598,0.007527
II,90,0.31953,0.008229
II,91,0.32308,0.005936
II,92,0.32663,-4.2e-05
II,93,0.33018,-0.001909
II,94,0.33373,-0.000192
II,95,0.33728,-0.000211
II,96,0.34083,-0.001133
II,97,0.34438,0.000889
II,98,0.34793,0.006615
II,99,0.35148,0.011397
II,100,0.35503,0.00625
II,101,0.35858,-0.005647
II,102,0.36213,-0.009421
II,103,0.36568,-0.008662
II,104,0.36923,-0.007003
II,105,0.37278,0.000293
II,106,0.37633,0.000978
II,107,0.37988,-0.006208
II,108,0.38343,-0.008067
II,109,0.38698,-0.006899
II,110,0.39053,-0.007161
II,111,0.39408,-0.006951
II,112,0.39763,-0.006294
II,113,0.40118,-0.006225
II,114,0.40473,-0.006614
II,115,0.40828,-0.005369
II,116,0.41183,-0.007337
II,117,0.41538,-0.014029
II,118,0.41893,-0.013523
II,119,0.42249,-0.007163
II,120,0.42604,-0.00283
II,121,0.42959,0.001275
II,122,0.43314,0.005382
II,123,0.43669,0.01236
II,124,0.44024,0.022168
II,125,0.44379,0.031732
II,126,0.44734,0.039902
II,127,0.45089,0.039594
II,128,0.45444,0.032182
II,129,0.45799,0.022441
II,130,0.46154,0.004906
II,131,0.46509,-0.010836
II,132,0.46864,-0.013083
II,133,0.47219,-0.012681
II,134,0.47574,-0.010796
II,135,0.47929,-0.004014
II,136,0.48284,-0.00225
II,137,0.48639,-0.001367
II,138,0.48994,0.004732
II,139,0.49349,0.008056
II,140,0.49704,0.00494
II,141,0.50059,-0.000461
II,142,0.50414,-0.002256
II,143,0.50769,-0.001381
II,144,0.51124,-0.00166
II,145,0.51479,-0.001766
II,146,0.51834,-0.001264
II,147,0.52189,-0.000934
II,148,0.52544,-0.000726
II,149,0.52899,-0.000804
II,150,0.53254,-0.000935
II,151,0.53609,-0.000807
II,152,0.53964,-0.00045
II,153,0.5432,-7.7e-05
II,154,0.54675,2.8e-05
II,155,0.5503,-0.00012
II,156,0.55385,-0.000113
II,157,0.5574,-9.8e-05
II,158,0.56095,0.000404
II,159,0.5645,0.000946
II,160,0.56805,-9.4e-05
II,161,0.5716,0.001918
II,162,0.57515,0.008061
II,163,0.5787,0.010461
II,164,0.58225,0.009769
II,165,0.5858,0.01023
II,166,0.58935,0.010309
II,167,0.5929,0.009986
II,168,0.59645,0.010114
II,169,0.6,0.010409
II,170,0.60355,0.01066
II,171,0.6071,0.010955
II,172,0.61065,0.010723
II,173,0.6142,0.010366
II,174,0.61775,0.011527
II,175,0.6213,0.009783
II,176,0.62485,0.003715
II,177,0.6284,0.001701
II,178,0.63195,0.002861
II,179,0.6355,0.001499
II,180,0.63905,0.003735
II,181,0.6426,0.010399
II,182,0.64615,0.012646
II,183,0.6497,0.011532
II,184,0.65325,0.011626
II,185,0.6568,0.011766
II,186,0.66036,0.011874
II,187,0.66391,0.012247
II,188,0.66746,0.012288
II,189,0.67101,0.012139
II,190,0.67456,0.012034
II,191,0.67811,0.012151
II,192,0.68166,0.012457
II,193,0.68521,0.012672
II,194,0.68876,0.012624
II,195,0.69231,0.012436
II,196,0.69586,0.012386
II,197,0.69941,0.012602
II,198,0.70296,0.012909
II,199,0.70651,0.013021
II,200,0.71006,0.012866
II,201,0.71361,0.012685
II,202,0.71716,0.01272
II,203,0.72071,0.013015
II,204,0.72426,0.013307
II,205,0.72781,0.013193
II,206,0.73136,0.013136
II,207,0.73491,0.012869
II,208,0.73846,0.012766
II,209,0.74201,0.014263
II,210,0.74556,0.012111
II,211,0.74911,0.005896
II,212,0.75266,0.003701
II,213,0.75621,0.00365
II,214,0.75976,0.00587
II,215,0.76331,0.01227
II,216,0.76686,0.014587
II,217,0.77041,0.013206
II,218,0.77396,0.01308
II,219,0.77751,0.013342
II,220,0.78107,0.013925
II,221,0.78462,0.013259
II,222,0.78817,0.014757
II,223,0.79172,0.021708
II,224,0.79527,0.022029
II,225,0.79882,0.009071
II,226,0.80237,-0.003597
II,227,0.80592,-0.003897
II,228,0.80947,0.00522
II,229,0.81302,0.012734
II,230,0.81657,0.013834
II,231,0.82012,0.013455
II,232,0.82367,0.014066
II,233,0.82722,0.014031
II,234,0.83077,0.013609
II,235,0.83432,0.0134
II,236,0.83787,0.013462
II,237,0.84142,0.013789
II,238,0.84497,0.013997
II,239,0.84852,0.013869
II,240,0.85207,0.013573
II,241,0.85562,0.013415
II,242,0.85917,0.01354
II,243,0.86272,0.0138
II,244,0.86627,0.013888
II,245,0.86982,0.013744
II,246,0.87337,0.013535
II,247,0.87692,0.01335
II,248,0.88047,0.013632
II,249,0.88402,0.013693
II,250,0.88757,0.013507
II,251,0.89112,0.014444
II,252,0.89467,0.01209
II,253,0.89822,0.005825
II,254,0.90178,0.003753
II,255,0.90533,0.004968
II,256,0.90888,0.004799
II,257,0.91243,0.004569
II,258,0.91598,0.004488
II,259,0.91953,0.004371
II,260,0.92308,0.004334
II,261,0.92663,0.004553
II,262,0.93018,0.005032
II,263,0.93373,0.003713
II,264,0.93728,0.005355
II,265,0.94083,0.012475
II,266,0.94438,0.012593
II,267,0.94793,0.005559
II,268,0.95148,0.003812
II,269,0.95503,0.004604
II,270,0.95858,0.004013
II,271,0.96213,0.004133
II,272,0.96568,0.003323
II,273,0.96923,0.005852
II,274,0.97278,0.011862
II,275,0.97633,0.013625
II,276,0.97988,0.013159
II,277,0.98343,0.010989
II,278,0.98698,0.006295
II,279,0.99053,0.002079
II,280,0.99408,-0.00304
II,281,0.99763,-0.005871
II,282,1.00118,-0.005217
II,283,1.00473,-0.005217
II,284,1.00828,-0.00503
II,285,1.01183,-0.004609
II,286,1.01538,-0.005105
II,287,1.01893,-0.005135
II,288,1.02249,-0.005892
II,289,1.02604,-0.009848
II,290,1.02959,-0.013597
II,291,1.03314,-0.014053
II,292,1.03669,-0.013998
II,293,1.04024,-0.014625
II,294,1.04379,-0.014773
II,295,1.04734,-0.014256
II,296,1.05089,-0.013214
II,297,1.05444,-0.012361
II,298,1.05799,-0.012065
II,299,1.06154,-0.011681
II,300,1.06509,-0.010795
II,301,1.06864,-0.009567
II,302,1.07219,-0.008358
II,303,1.07574,-0.007866
II,304,1.07929,-0.007614
II,305,1.08284,-0.006792
II,306,1.08639,-0.006704
II,307,1.08994,-0.004657
II,308,1.09349,0.00295
II,309,1.09704,0.012247
II,310,1.10059,0.020567
II,311,1.10414,0.028571
II,312,1.10769,0.030393
II,313,1.11124,0.019299
II,314,1.11479,0.005733
II,315,1.11834,0.000904
II,316,1.12189,-0.003422
II,317,1.12544,-0.010969
II,318,1.12899,-0.017641
II,319,1.13254,-0.022666
II,320,1.13609,-0.024104
II,321,1.13964,-0.023958
II,322,1.1432,-0.024487
II,323,1.14675,-0.024266
II,324,1.1503,-0.023672
II,325,1.15385,-0.023563
II,326,1.1574,-0.023909
II,327,1.16095,-0.02441
II,328,1.1645,-0.024511
II,329,1.16805,-0.024117
II,330,1.1716,-0.023708
II,331,1.17515,-0.023748
II,332,1.1787,-0.024189
II,333,1.18225,-0.024563
II,334,1.1858,-0.024452
II,335,1.18935,-0.023989
II,336,1.1929,-0.023807
II,337,1.19645,-0.023882
II,338,1.2,-0.023573
II,339,1.20355,-0.022789
II,340,1.2071,-0.021669
II,341,1.21065,-0.020361
II,342,1.2142,-0.019384
II,343,1.21775,-0.018845
II,344,1.2213,-0.018233
II,345,1.22485,-0.017528
II,346,1.2284,-0.01609
II,347,1.23195,-0.014769
II,348,1.2355,-0.015787
II,349,1.23905,-0.014136
II,350,1.2426,-0.007988
II,351,1.24615,-0.00591
II,352,1.2497,-0.008167
II,353,1.25325,-0.009606
II,354,1.2568,-0.011535
II,355,1.26036,-0.013857
II,356,1.26391,-0.015062
II,357,1.26746,-0.01613
II,358,1.27101,-0.013594
II,359,1.27456,-0.007192
II,360,1.27811,-0.005787
II,361,1.28166,-0.009531
II,362,1.28521,-0.012455
II,363,1.28876,-0.014849
II,364,1.29231,-0.017685
II,365,1.29586,-0.021022
II,366,1.29941,-0.023701
II,367,1.30296,-0.024403
II,368,1.30651,-0.023793
II,369,1.31006,-0.023251
II,370,1.31361,-0.024421
II,371,1.31716,-0.022305
II,372,1.32071,-0.016106
II,373,1.32426,-0.01494
II,374,1.32781,-0.01356
II,375,1.33136,-0.006916
II,376,1.33491,-0.004673
II,377,1.33846,-0.006116
II,378,1.34201,-0.005872
II,379,1.34556,-0.005597
II,380,1.34911,-0.005473
II,381,1.35266,-0.005231
II,382,1.35621,-0.005393
II,383,1.35976,-0.005559
II,384,1.36331,-0.00549
II,385,1.36686,-0.005336
II,386,1.37041,-0.004916
II,387,1.37396,-0.005001
II,388,1.37751,-0.005386
II,389,1.38107,-0.004406
II,390,1.38462,-0.00643
II,391,1.38817,-0.012334
II,392,1.39172,-0.014313
II,393,1.39527,-0.013276
II,394,1.39882,-0.013636
II,395,1.40237,-0.013748
II,396,1.40592,-0.013382
II,397,1.40947,-0.013229
II,398,1.41302,-0.013101
II,399,1.41657,-0.013153
II,400,1.42012,-0.013217
II,401,1.42367,-0.013112
II,402,1.42722,-0.012896
II,403,1.43077,-0.012711
II,404,1.43432,-0.012663
II,405,1.43787,-0.012696
II,406,1.44142,-0.012667
II,407,1.44497,-0.012517
II,408,1.44852,-0.01232
II,409,1.45207,-0.012193
II,410,1.45562,-0.012161
II,411,1.45917,-0.012141
II,412,1.46272,-0.012045
II,413,1.46627,-0.01188
II,414,1.46982,-0.011725
II,415,1.47337,-0.011634
II,416,1.47692,-0.011581
II,417,1.48047,-0.011499
II,418,1.48402,-0.011365
II,419,1.48757,-0.011219
II,420,1.49112,-0.011105
II,421,1.49467,-0.011018
II,422,1.49822,-0.010918
II,423,1.50178,-0.010785
II,424,1.50533,-0.010648
II,425,1.50888,-0.010538
II,426,1.51243,-0.010446
II,427,1.51598,-0.01033
II,428,1.51953,-0.010175
II,429,1.52308,-0.010019
II,430,1.52663,-0.009909
II,431,1.53018,-0.009836
II,432,1.53373,-0.009735
II,433,1.53728,-0.009564
II,434,1.54083,-0.009366
II,435,1.54438,-0.009222
II,436,1.54793,-0.009155
II,437,1.55148,-0.009107
II,438,1.55503,-0.008952
II,439,1.55858,-0.008723
II,440,1.56213,-0.008538
II,441,1.56568,-0.008345
II,442,1.56923,-0.008482
II,443,1.57278,-0.008309
II,444,1.57633,-0.00783
II,445,1.57988,-0.008639
II,446,1.58343,-0.00635
II,447,1.58698,0.000113
II,448,1.59053,0.001832
II,449,1.59408,-0.001546
II,450,1.59763,-0.004549
II,451,1.60118,-0.006542
II,452,1.60473,-0.007015
II,453,1.60828,-0.00667
II,454,1.61183,-0.006679
II,455,1.61538,-0.006762
II,456,1.61893,-0.006056
II,457,1.62249,-0.003916
II,458,1.62604,-0.001441
II,459,1.62959,0.000933
II,460,1.63314,0.002826
II,461,1.63669,0.003316
II,462,1.64024,0.003639
II,463,1.64379,0.003623
II,464,1.64734,0.00185
II,465,1.65089,-0.000577
II,466,1.65444,-0.002857
II,467,1.65799,-0.004505
II,468,1.66154,-0.004563
II,469,1.66509,-0.003926
II,470,1.66864,-0.004211
II,471,1.67219,-0.005803
II,472,1.67574,-0.007647
II,473,1.67929,-0.009039
II,474,1.68284,-0.010576
II,475,1.68639,-0.011874
II,476,1.68994,-0.012157
II,477,1.69349,-0.012091
II,478,1.69704,-0.012033
II,479,1.70059,-0.011659
II,480,1.70414,-0.011236
II,481,1.70769,-0.011084
II,482,1.71124,-0.011187
II,483,1.71479,-0.011315
II,484,1.71834,-0.011055
II,485,1.72189,-0.010682
II,486,1.72544,-0.010278
II,487,1.72899,-0.009948
II,488,1.73254,-0.010962
II,489,1.73609,-0.009749
II,490,1.73964,-0.001709
II,491,1.7432,0.008247
II,492,1.74675,0.017321
II,493,1.7503,0.026714
II,494,1.75385,0.03317
II,495,1.7574,0.037526
II,496,1.76095,0.031849
II,497,1.7645,0.011611
II,498,1.76805,-2.4e-05
II,499,1.7716,-0.000399
II,500,1.77515,-0.008584
II,501,1.7787,-0.017357
II,502,1.78225,-0.017462
II,503,1.7858,-0.016379
II,504,1.78935,-0.016571
II,505,1.7929,-0.015744
II,506,1.79645,-0.014474
II,507,1.8,-0.012931
II,508,1.80355,-0.011037
II,509,1.8071,-0.009484
II,510,1.81065,-0.008283
II,511,1.8142,-0.007558
II,512,1.81775,-0.007371
II,513,1.8213,-0.006968
II,514,1.82485,-0.006469
II,515,1.8284,-0.00619
II,516,1.83195,-0.006549
II,517,1.8355,-0.007238
II,518,1.83905,-0.005882
II,519,1.8426,-0.007261
II,520,1.84615,-0.014037
II,521,1.8497,-0.014131
II,522,1.85325,-0.007286
II,523,1.8568,-0.005366
II,524,1.86036,-0.006655
II,525,1.86391,-0.005159
II,526,1.86746,-0.000697
II,527,1.87101,0.003119
II,528,1.87456,0.003385
II,529,1.87811,0.002911
II,530,1.88166,0.003495
II,531,1.88521,0.003918
II,532,1.88876,0.004046
II,533,1.89231,0.003608
II,534,1.89586,0.003422
II,535,1.89941,0.003735
II,536,1.90296,0.003112
II,537,1.90651,0.005601
II,538,1.91006,0.011651
II,539,1.91361,0.013681
II,540,1.91716,0.012038
II,541,1.92071,0.010541
II,542,1.92426,0.008695
II,543,1.92781,0.006437
II,544,1.93136,0.004358
II,545,1.93491,0.003848
II,546,1.93846,0.005139
II,547,1.94201,0.006897
II,548,1.94556,0.008649
II,549,1.94911,0.010229
II,550,1.95266,0.011607
II,551,1.95621,0.012497
II,552,1.95976,0.012596
II,553,1.96331,0.012652
II,554,1.96686,0.012991
II,555,1.97041,0.013014
II,556,1.97396,0.012658
II,557,1.97751,0.012383
II,558,1.98107,0.012111
II,559,1.98462,0.012446
II,560,1.98817,0.012917
II,561,1.99172,0.011765
II,562,1.99527,0.013523
II,563,1.99882,0.019313
II,564,2.00237,0.021404
II,565,2.00592,0.020565
II,566,2.00947,0.020965
II,567,2.01302,0.02085
II,568,2.01657,0.020261
II,569,2.02012,0.019892
II,570,2.02367,0.019847
II,571,2.02722,0.020359
II,572,2.03077,0.019642
II,573,2.03432,0.02042
II,574,2.03787,0.027855
II,575,2.04142,0.036675
II,576,2.04497,0.036824
II,577,2.04852,0.02763
II,578,2.05207,0.019638
II,579,2.05562,0.018279
II,580,2.05917,0.01734
II,581,2.06272,0.019158
II,582,2.06627,0.025287
II,583,2.06982,0.027271
II,584,2.07337,0.02695
II,585,2.07692,0.024316
II,586,2.08047,0.017943
II,587,2.08402,0.015631
II,588,2.08757,0.015893
II,589,2.09112,0.017487
II,590,2.09467,0.022792
II,591,2.09822,0.02557
II,592,2.10178,0.021952
II,593,2.10533,0.015761
II,594,2.10888,0.013739
II,595,2.11243,0.014504
II,596,2.11598,0.012688
II,597,2.11953,0.014118
II,598,2.12308,0.020117
II,599,2.12663,0.022028
II,600,2.13018,0.020716
II,601,2.13373,0.020439
II,602,2.13728,0.019906
II,603,2.14083,0.019197
II,604,2.14438,0.01892
II,605,2.14793,0.018712
II,606,2.15148,0.018122
II,607,2.15503,0.017625
II,608,2.15858,0.01718
II,609,2.16213,0.015581
II,610,2.16568,0.017359
II,611,2.16923,0.023138
II,612,2.17278,0.024738
II,613,2.17633,0.02294
II,614,2.17988,0.022487
II,615,2.18343,0.022087
II,616,2.18698,0.02138
II,617,2.19053,0.021112
II,618,2.19408,0.020269
II,619,2.19763,0.019238
II,620,2.20118,0.019596
II,621,2.20473,0.016833
II,622,2.20828,0.010123
II,623,2.21183,0.007298
II,624,2.21538,0.007548
II,625,2.21893,0.006549
II,626,2.22249,0.005486
II,627,2.22604,0.005191
II,628,2.22959,0.004508
II,629,2.23314,0.002825
II,630,2.23669,0.004242
II,631,2.24024,0.008618
II,632,2.24379,0.012009
II,633,2.24734,0.016127
II,634,2.25089,0.018787
II,635,2.25444,0.014726
II,636,2.25799,0.007747
II,637,2.26154,0.004731
II,638,2.26509,0.004769
II,639,2.26864,0.004143
II,640,2.27219,0.001857
II,641,2.27574,0.002892
II,642,2.27929,0.00903
II,643,2.28284,0.008068
II,644,2.28639,-0.000142
II,645,2.28994,-0.003093
II,646,2.29349,-0.003013
II,647,2.29704,-0.004532
II,648,2.30059,-0.005622
II,649,2.30414,-0.006624
II,650,2.30769,-0.007679
II,651,2.31124,-0.008985
II,652,2.31479,-0.010346
II,653,2.31834,-0.010609
II,654,2.32189,-0.013777
II,655,2.32544,-0.020933
II,656,2.32899,-0.025486
II,657,2.33254,-0.023578
II,658,2.33609,-0.018889
II,659,2.33964,-0.018056
II,660,2.3432,-0.020157
II,661,2.34675,-0.02161
II,662,2.3503,-0.022828
II,663,2.35385,-0.024222
II,664,2.3574,-0.026284
II,665,2.36095,-0.025559
II,666,2.3645,-0.021057
II,667,2.36805,-0.019606
II,668,2.3716,-0.024449
II,669,2.37515,-0.031512
II,670,2.3787,-0.03563
II,671,2.38225,-0.034793
II,672,2.3858,-0.029014
II,673,2.38935,-0.021157
II,674,2.3929,-0.01395
II,675,2.39645,-0.006258
III,0,0.0,-0.022749
III,1,0.00355,-0.026145
III,2,0.0071,-0.024859
III,3,0.01065,-0.024262
III,4,0.0142,-0.015021
III,5,0.01775,0.019034
III,6,0.0213,0.054037
III,7,0.02485,0.064604
III,8,0.0284,0.066165
III,9,0.03195,0.071167
III,10,0.0355,0.074749
III,11,0.03905,0.075428
III,12,0.0426,0.074465
III,13,0.04615,0.073625
III,14,0.0497,0.075195
III,15,0.05325,0.078074
III,16,0.0568,0.078652
III,17,0.06036,0.076812
III,18,0.06391,0.076154
III,19,0.06746,0.077328
III,20,0.07101,0.079627
III,21,0.07456,0.081513
III,22,0.07811,0.079432
III,23,0.08166,0.079086
III,24,0.08521,0.084219
III,25,0.08876,0.086872
III,26,0.09231,0.087409
III,27,0.09586,0.088192
III,28,0.09941,0.086257
III,29,0.10296,0.082641
III,30,0.10651,0.0793
III,31,0.11006,0.082673
III,32,0.11361,0.092504
III,33,0.11716,0.09726
III,34,0.12071,0.095657
III,35,0.12426,0.093524
III,36,0.12781,0.097667
III,37,0.13136,0.106767
III,38,0.13491,0.10916
III,39,0.13846,0.10453
III,40,0.14201,0.097711
III,41,0.14556,0.095119
III,42,0.14911,0.103331
III,43,0.15266,0.114537
III,44,0.15621,0.120485
III,45,0.15976,0.1209
III,46,0.16331,0.118662
III,47,0.16686,0.119075
III,48,0.17041,0.122059
III,49,0.17396,0.124661
III,50,0.17751,0.124424
III,51,0.18107,0.119035
III,52,0.18462,0.118064
III,53,0.18817,0.124716
III,54,0.19172,0.126386
III,55,0.19527,0.12733
III,56,0.19882,0.132359
III,57,0.20237,0.134687
III,58,0.20592,0.138077
III,59,0.20947,0.143618
III,60,0.21302,0.147182
III,61,0.21657,0.146746
III,62,0.22012,0.141793
III,63,0.22367,0.135494
III,64,0.22722,0.130581
III,65,0.23077,0.133925
III,66,0.23432,0.14425
III,67,0.23787,0.146884
III,68,0.24142,0.141501
III,69,0.24497,0.138024
III,70,0.24852,0.138528
III,71,0.25207,0.142615
III,72,0.25562,0.145902
III,73,0.25917,0.142654
III,74,0.26272,0.139881
III,75,0.26627,0.144193
III,76,0.26982,0.149867
III,77,0.27337,0.154866
III,78,0.27692,0.157087
III,79,0.28047,0.152302
III,80,0.28402,0.145787
III,81,0.28757,0.142729
III,82,0.29112,0.147253
III,83,0.29467,0.160739
III,84,0.29822,0.169496
III,85,0.30178,0.165708
III,86,0.30533,0.161088
III,87,0.30888,0.163862
III,88,0.31243,0.170409
III,89,0.31598,0.174579
III,90,0.31953,0.172513
III,91,0.32308,0.165744
III,92,0.32663,0.159057
III,93,0.33018,0.155617
III,94,0.33373,0.160296
III,95,0.33728,0.167813
III,96,0.34083,0.164289
III,97,0.34438,0.159462
III,98,0.34793,0.165375
III,99,0.35148,0.170204
III,100,0.35503,0.167422
III,101,0.35858,0.164108
III,102,0.36213,0.162305
III,103,0.36568,0.159777
III,104,0.36923,0.16209
III,105,0.37278,0.170892
III,106,0.37633,0.175706
III,107,0.37988,0.17111
III,108,0.38343,0.16284
III,109,0.38698,0.160297
III,110,0.39053,0.166894
III,111,0.39408,0.175934
III,112,0.39763,0.177493
III,113,0.40118,0.169248
III,114,0.40473,0.162209
III,115,0.40828,0.162175
III,116,0.41183,0.16236
III,117,0.41538,0.164214
III,118,0.41893,0.165465
III,119,0.42249,0.16047
III,120,0.42604,0.159322
III,121,0.42959,0.166152
III,122,0.43314,0.177793
III,123,0.43669,0.190084
III,124,0.44024,0.193019
III,125,0.44379,0.190067
III,126,0.44734,0.196532
III,127,0.45089,0.215257
III,128,0.45444,0.225396
III,129,0.45799,0.204058
III,130,0.46154,0.170622
III,131,0.46509,0.153868
III,132,0.46864,0.147631
III,133,0.47219,0.175804
III,134,0.47574,0.172622
III,135,0.47929,0.147279
III,136,0.48284,0.239764
III,137,0.48639,0.034691
III,138,0.48994,-0.479192
III,139,0.49349,-0.624341
III,140,0.49704,-0.613921
III,141,0.50059,-0.468375
III,142,0.50414,0.046812
III,143,0.50769,0.227071
III,144,0.51124,0.113987
III,145,0.51479,0.237927
III,146,0.51834,0.068204
III,147,0.52189,-0.476956
III,148,0.52544,-0.661029
III,149,0.52899,-0.572874
III,150,0.53254,-0.580554
III,151,0.53609,-0.582974
III,152,0.53964,-0.579002
III,153,0.5432,-0.601631
III,154,0.54675,-0.598675
III,155,0.5503,-0.585808
III,156,0.55385,-0.59589
III,157,0.5574,-0.552184
III,158,0.56095,-0.356147
III,159,0.5645,-0.075678
III,160,0.56805,0.126468
III,161,0.5716,0.178217
III,162,0.57515,0.171201
III,163,0.5787,0.176319
III,164,0.58225,0.167741
III,165,0.5858,0.155197
III,166,0.58935,0.157597
III,167,0.5929,0.167088
III,168,0.59645,0.174398
III,169,0.6,0.170918
III,170,0.60355,0.160111
III,171,0.6071,0.15402
III,172,0.61065,0.15855
III,173,0.6142,0.1679
III,174,0.61775,0.171159
III,175,0.6213,0.164466
III,176,0.62485,0.155073
III,177,0.6284,0.1529
III,178,0.63195,0.159551
III,179,0.6355,0.166866
III,180,0.63905,0.166247
III,181,0.6426,0.158132
III,182,0.64615,0.15117
III,183,0.6497,0.152409
III,184,0.65325,0.159607
III,185,0.6568,0.164049
III,186,0.66036,0.160369
III,187,0.66391,0.15232
III,188,0.66746,0.148304
III,189,0.67101,0.151964
III,190,0.67456,0.15836
III,191,0.67811,0.159726
III,192,0.68166,0.154108
III,193,0.68521,0.147293
III,194,0.68876,0.146151
III,195,0.69231,0.151049
III,196,0.69586,0.155694
III,197,0.69941,0.154307
III,198,0.70296,0.147947
III,199,0.70651,0.143087
III,200,0.71006,0.144293
III,201,0.71361,0.149284
III,202,0.71716,0.151702
III,203,0.72071,0.148254
III,204,0.72426,0.142212
III,205,0.72781,0.139554
III,206,0.73136,0.142305
III,207,0.73491,0.146464
III,208,0.73846,0.146623
III,209,0.74201,0.142002
III,210,0.74556,0.137048
III,211,0.74911,0.136398
III,212,0.75266,0.139898
III,213,0.75621,0.142458
III,214,0.75976,0.140832
III,215,0.76331,0.136125
III,216,0.76686,0.131619
III,217,0.77041,0.13472
III,218,0.77396,0.144185
III,219,0.77751,0.147342
III,220,0.78107,0.143236
III,221,0.78462,0.13895
III,222,0.78817,0.136971
III,223,0.79172,0.13936
III,224,0.79527,0.141089
III,225,0.79882,0.132231
III,226,0.80237,0.119102
III,227,0.80592,0.116783
III,228,0.80947,0.122326
III,229,0.81302,0.1285
III,230,0.81657,0.135201
III,231,0.82012,0.135468
III,232,0.82367,0.128986
III,233,0.82722,0.124679
III,234,0.83077,0.123877
III,235,0.83432,0.123937
III,236,0.83787,0.122437
III,237,0.84142,0.117586
III,238,0.84497,0.112354
III,239,0.84852,0.10962
III,240,0.85207,0.107972
III,241,0.85562,0.110026
III,242,0.85917,0.114809
III,243,0.86272,0.11379
III,244,0.86627,0.109866
III,245,0.86982,0.109897
III,246,0.87337,0.111551
III,247,0.87692,0.111845
III,248,0.88047,0.109841
III,249,0.88402,0.106505
III,250,0.88757,0.104634
III,251,0.89112,0.105196
III,252,0.89467,0.106416
III,253,0.89822,0.105885
III,254,0.90178,0.103167
III,255,0.90533,0.100268
III,256,0.90888,0.099332
III,257,0.91243,0.100262
III,258,0.91598,0.100891
III,259,0.91953,0.099444
III,260,0.92308,0.09649
III,261,0.92663,0.094252
III,262,0.93018,0.094095
III,263,0.93373,0.095033
III,264,0.93728,0.094889
III,265,0.94083,0.092739
III,266,0.94438,0.089906
III,267,0.94793,0.088437
III,268,0.95148,0.088812
III,269,0.95503,0.089427
III,270,0.95858,0.088493
III,271,0.96213,0.08592
III,272,0.96568,0.083451
III,273,0.96923,0.08286
III,274,0.97278,0.083231
III,275,0.97633,0.082069
III,276,0.97988,0.078769
III,277,0.98343,0.074658
III,278,0.98698,0.0714
III,279,0.99053,0.069636
III,280,0.99408,0.068927
III,281,0.99763,0.068136
III,282,1.00118,0.06598
III,283,1.00473,0.063605
III,284,1.00828,0.062312
III,285,1.01183,0.06236
III,286,1.01538,0.063623
III,287,1.01893,0.060195
III,288,1.02249,0.051524
III,289,1.02604,0.047277
III,290,1.02959,0.047816
III,291,1.03314,0.04799
III,292,1.03669,0.047567
III,293,1.04024,0.045837
III,294,1.04379,0.043228
III,295,1.04734,0.041754
III,296,1.05089,0.041663
III,297,1.05444,0.042127
III,298,1.05799,0.041036
III,299,1.06154,0.038546
III,300,1.06509,0.03724
III,301,1.06864,0.034135
III,302,1.07219,0.028719
III,303,1.07574,0.025482
III,304,1.07929,0.026227
III,305,1.08284,0.031976
III,306,1.08639,0.037314
III,307,1.08994,0.040628
III,308,1.09349,0.045667
III,309,1.09704,0.048525
III,310,1.10059,0.053118
III,311,1.10414,0.061206
III,312,1.10769,0.057596
III,313,1.11124,0.043041
III,314,1.11479,0.032104
III,315,1.11834,0.021876
III,316,1.12189,0.012749
III,317,1.12544,0.008253
III,318,1.12899,-0.000658
III,319,1.13254,-0.006775
III,320,1.13609,-0.003179
III,321,1.13964,0.000334
III,322,1.1432,0.002691
III,323,1.14675,0.00375
III,324,1.1503,0.002658
III,325,1.15385,0.002488
III,326,1.1574,0.002195
III,327,1.16095,-0.000563
III,328,1.1645,-0.006644
III,329,1.16805,-0.01176
III,330,1.1716,-0.012408
III,331,1.17515,-0.012344
III,332,1.1787,-0.013829
III,333,1.18225,-0.016011
III,334,1.1858,-0.017446
III,335,1.18935,-0.017825
III,336,1.1929,-0.019019
III,337,1.19645,-0.017589
III,338,1.2,-0.013073
III,339,1.20355,-0.012789
III,340,1.2071,-0.015068
III,341,1.21065,-0.015245
III,342,1.2142,-0.015369
III,343,1.21775,-0.016752
III,344,1.2213,-0.018296
III,345,1.22485,-0.019719
III,346,1.2284,-0.021659
III,347,1.23195,-0.019935
III,348,1.2355,-0.014174
III,349,1.23905,-0.01342
III,350,1.2426,-0.016461
III,351,1.24615,-0.016452
III,352,1.2497,-0.019273
III,353,1.25325,-0.02606
III,354,1.2568,-0.02856
III,355,1.26036,-0.029855
III,356,1.26391,-0.030384
III,357,1.26746,-0.023509
III,358,1.27101,-0.015672
III,359,1.27456,-0.014228
III,360,1.27811,-0.018524
III,361,1.28166,-0.024563
III,362,1.28521,-0.03047
III,363,1.28876,-0.036797
III,364,1.29231,-0.038593
III,365,1.29586,-0.040551
III,366,1.29941,-0.047881
III,367,1.30296,-0.051769
III,368,1.30651,-0.051792
III,369,1.31006,-0.052421
III,370,1.31361,-0.05407
III,371,1.31716,-0.053504
III,372,1.32071,-0.046379
III,373,1.32426,-0.040271
III,374,1.32781,-0.038181
III,375,1.33136,-0.033623
III,376,1.33491,-0.03082
III,377,1.33846,-0.034969
III,378,1.34201,-0.042051
III,379,1.34556,-0.046308
III,380,1.34911,-0.044086
III,381,1.35266,-0.038634
III,382,1.35621,-0.037352
III,383,1.35976,-0.039388
III,384,1.36331,-0.040608
III,385,1.36686,-0.04131
III,386,1.37041,-0.042331
III,387,1.37396,-0.042882
III,388,1.37751,-0.042838
III,389,1.38107,-0.046525
III,390,1.38462,-0.052749
III,391,1.38817,-0.058041
III,392,1.39172,-0.063624
III,393,1.39527,-0.066251
III,394,1.39882,-0.06753
III,395,1.40237,-0.06698
III,396,1.40592,-0.061038
III,397,1.40947,-0.061377
III,398,1.41302,-0.069331
III,399,1.41657,-0.071876
III,400,1.42012,-0.071621
III,401,1.42367,-0.074342
III,402,1.42722,-0.073049
III,403,1.43077,-0.06719
III,404,1.43432,-0.065625
III,405,1.43787,-0.067613
III,406,1.44142,-0.068633
III,407,1.44497,-0.069566
III,408,1.44852,-0.070415
III,409,1.45207,-0.070517
III,410,1.45562,-0.07132
III,411,1.45917,-0.072711
III,412,1.46272,-0.072767
III,413,1.46627,-0.075931
III,414,1.46982,-0.082369
III,415,1.47337,-0.084681
III,416,1.47692,-0.085531
III,417,1.48047,-0.084836
III,418,1.48402,-0.079854
III,419,1.48757,-0.078094
III,420,1.49112,-0.079524
III,421,1.49467,-0.079791
III,422,1.49822,-0.080708
III,423,1.50178,-0.08209
III,424,1.50533,-0.082815
III,425,1.50888,-0.083172
III,426,1.51243,-0.083466
III,427,1.51598,-0.084188
III,428,1.51953,-0.08537
III,429,1.52308,-0.086428
III,430,1.52663,-0.086922
III,431,1.53018,-0.087206
III,432,1.53373,-0.087487
III,433,1.53728,-0.088472
III,434,1.54083,-0.090044
III,435,1.54438,-0.089658
III,436,1.54793,-0.09185
III,437,1.55148,-0.099279
III,438,1.55503,-0.099908
III,439,1.55858,-0.093754
III,440,1.56213,-0.092864
III,441,1.56568,-0.09456
III,442,1.56923,-0.094275
III,443,1.57278,-0.094551
III,444,1.57633,-0.095531
III,445,1.57988,-0.096537
III,446,1.58343,-0.097355
III,447,1.58698,-0.097591
III,448,1.59053,-0.097684
III,449,1.59408,-0.098201
III,450,1.59763,-0.099181
III,451,1.60118,-0.100164
III,452,1.60473,-0.100633
III,453,1.60828,-0.100709
III,454,1.61183,-0.100934
III,455,1.61538,-0.101568
III,456,1.61893,-0.102757
III,457,1.62249,-0.103345
III,458,1.62604,-0.103387
III,459,1.62959,-0.104395
III,460,1.63314,-0.102575
III,461,1.63669,-0.097667
III,462,1.64024,-0.095494
III,463,1.64379,-0.098249
III,464,1.64734,-0.106347
III,465,1.65089,-0.114273
III,466,1.65444,-0.117301
III,467,1.65799,-0.11534
III,468,1.66154,-0.109176
III,469,1.66509,-0.109309
III,470,1.66864,-0.11649
III,471,1.67219,-0.118868
III,472,1.67574,-0.118091
III,473,1.67929,-0.119656
III,474,1.68284,-0.124028
III,475,1.68639,-0.129197
III,476,1.68994,-0.12779
III,477,1.69349,-0.121713
III,478,1.69704,-0.120227
III,479,1.70059,-0.121895
III,480,1.70414,-0.122045
III,481,1.70769,-0.120984
III,482,1.71124,-0.123599
III,483,1.71479,-0.130221
III,484,1.71834,-0.132832
III,485,1.72189,-0.132134
III,486,1.72544,-0.132353
III,487,1.72899,-0.132611
III,488,1.73254,-0.133534
III,489,1.73609,-0.132526
III,490,1.73964,-0.126283
III,491,1.7432,-0.114393
III,492,1.74675,-0.100033
III,493,1.7503,-0.088885
III,494,1.75385,-0.081766
III,495,1.7574,-0.082318
III,496,1.76095,-0.094378
III,497,1.7645,-0.109487
III,498,1.76805,-0.11617
III,499,1.7716,-0.119196
III,500,1.77515,-0.131713
III,501,1.7787,-0.144303
III,502,1.78225,-0.145787
III,503,1.7858,-0.145405
III,504,1.78935,-0.143871
III,505,1.7929,-0.139232
III,506,1.79645,-0.134915
III,507,1.8,-0.129976
III,508,1.80355,-0.12758
III,509,1.8071,-0.12752
III,510,1.81065,-0.13002
III,511,1.8142,-0.136295
III,512,1.81775,-0.138892
III,513,1.8213,-0.137489
III,514,1.82485,-0.137142
III,515,1.8284,-0.138607
III,516,1.83195,-0.136936
III,517,1.8355,-0.130076
III,518,1.83905,-0.129965
III,519,1.8426,-0.13689
III,520,1.84615,-0.138589
III,521,1.8497,-0.137825
III,522,1.85325,-0.138436
III,523,1.8568,-0.13851
III,524,1.86036,-0.139007
III,525,1.86391,-0.136426
III,526,1.86746,-0.131074
III,527,1.87101,-0.12721
III,528,1.87456,-0.122641
III,529,1.87811,-0.119066
III,530,1.88166,-0.121787
III,531,1.88521,-0.127514
III,532,1.88876,-0.12962
III,533,1.89231,-0.129063
III,534,1.89586,-0.129033
III,535,1.89941,-0.129653
III,536,1.90296,-0.127907
III,537,1.90651,-0.119791
III,538,1.91006,-0.110761
III,539,1.91361,-0.110874
III,540,1.91716,-0.120153
III,541,1.92071,-0.127615
III,542,1.92426,-0.128098
III,543,1.92781,-0.128236
III,544,1.93136,-0.126471
III,545,1.93491,-0.120386
III,546,1.93846,-0.117875
III,547,1.94201,-0.118756
III,548,1.94556,-0.117977
III,549,1.94911,-0.117449
III,550,1.95266,-0.118699
III,551,1.95621,-0.116419
III,552,1.95976,-0.110026
III,553,1.96331,-0.10745
III,554,1.96686,-0.108102
III,555,1.97041,-0.107651
III,556,1.97396,-0.107482
III,557,1.97751,-0.107519
III,558,1.98107,-0.107175
III,559,1.98462,-0.106764
III,560,1.98817,-0.106149
III,561,1.99172,-0.106295
III,562,1.99527,-0.105656
III,563,1.99882,-0.101339
III,564,2.00237,-0.096815
III,565,2.00592,-0.095756
III,566,2.00947,-0.095679
III,567,2.01302,-0.095234
III,568,2.01657,-0.095151
III,569,2.02012,-0.094905
III,570,2.02367,-0.094587
III,571,2.02722,-0.093855
III,572,2.03077,-0.093206
III,573,2.03432,-0.093855
III,574,2.03787,-0.091678
III,575,2.04142,-0.08545
III,576,2.04497,-0.081634
III,577,2.04852,-0.084221
III,578,2.05207,-0.089715
III,579,2.05562,-0.091417
III,580,2.05917,-0.090581
III,581,2.06272,-0.089992
III,582,2.06627,-0.089336
III,583,2.06982,-0.08985
III,584,2.07337,-0.086213
III,585,2.07692,-0.082126
III,586,2.08047,-0.085737
III,587,2.08402,-0.088113
III,588,2.08757,-0.087105
III,589,2.09112,-0.084553
III,590,2.09467,-0.078027
III,591,2.09822,-0.07579
III,592,2.10178,-0.079749
III,593,2.10533,-0.082531
III,594,2.10888,-0.084725
III,595,2.11243,-0.08925
III,596,2.11598,-0.089759
III,597,2.11953,-0.083683
III,598,2.12308,-0.080077
III,599,2.12663,-0.079723
III,600,2.13018,-0.078084
III,601,2.13373,-0.076696
III,602,2.13728,-0.075811
III,603,2.14083,-0.074589
III,604,2.14438,-0.073272
III,605,2.14793,-0.071807
III,606,2.15148,-0.070379
III,607,2.15503,-0.069164
III,608,2.15858,-0.068046
III,609,2.16213,-0.066753
III,610,2.16568,-0.065453
III,611,2.16923,-0.064552
III,612,2.17278,-0.063906
III,613,2.17633,-0.063319
III,614,2.17988,-0.062789
III,615,2.18343,-0.062167
III,616,2.18698,-0.061409
III,617,2.19053,-0.060602
III,618,2.19408,-0.059891
III,619,2.19763,-0.059308
III,620,2.20118,-0.058621
III,621,2.20473,-0.058098
III,622,2.20828,-0.058135
III,623,2.21183,-0.058415
III,624,2.21538,-0.058648
III,625,2.21893,-0.05888
III,626,2.22249,-0.059431
III,627,2.22604,-0.059481
III,628,2.22959,-0.059563
III,629,2.23314,-0.060739
III,630,2.23669,-0.058432
III,631,2.24024,-0.052734
III,632,2.24379,-0.047629
III,633,2.24734,-0.041972
III,634,2.25089,-0.038328
III,635,2.25444,-0.038974
III,636,2.25799,-0.042178
III,637,2.26154,-0.045548
III,638,2.26509,-0.045482
III,639,2.26864,-0.043926
III,640,2.27219,-0.0443
III,641,2.27574,-0.041413
III,642,2.27929,-0.033927
III,643,2.28284,-0.031598
III,644,2.28639,-0.036089
III,645,2.28994,-0.03922
III,646,2.29349,-0.038735
III,647,2.29704,-0.037529
III,648,2.30059,-0.036743
III,649,2.30414,-0.035993
III,650,2.30769,-0.035241
III,651,2.31124,-0.034435
III,652,2.31479,-0.033447
III,653,2.31834,-0.032422
III,654,2.32189,-0.031532
III,655,2.32544,-0.030821
III,656,2.32899,-0.030106
III,657,2.33254,-0.029248
III,658,2.33609,-0.028155
III,659,2.33964,-0.026991
III,660,2.3432,-0.026369
III,661,2.34675,-0.025358
III,662,2.3503,-0.022753
III,663,2.35385,-0.019484
III,664,2.3574,-0.015752
III,665,2.36095,-0.012924
III,666,2.3645,-0.011997
III,667,2.36805,-0.010642
III,668,2.3716,-0.011937
III,669,2.37515,-0.016762
III,670,2.3787,-0.018246
III,671,2.38225,-0.015136
III,672,2.3858,-0.00916
III,673,2.38935,-0.001547
III,674,2.3929,0.005836
III,675,2.39645,0.013662
aVR,0,0.0,0.007482
aVR,1,0.00355,0.044151
aVR,2,0.0071,0.446692
aVR,3,0.01065,0.45171
aVR,4,0.0142,0.065588
aVR,5,0.01775,-0.030306
aVR,6,0.0213,0.024901
aVR,7,0.02485,-0.005722
aVR,8,0.0284,-0.008781
aVR,9,0.03195,0.006115
aVR,10,0.0355,0.006628
aVR,11,0.03905,0.002885
aVR,12,0.0426,-0.006742
aVR,13,0.04615,-0.009624
aVR,14,0.0497,-0.002535
aVR,15,0.05325,0.005673
aVR,16,0.0568,0.006447
aVR,17,0.06036,-0.000949
aVR,18,0.06391,-0.008046
aVR,19,0.06746,-0.006968
aVR,20,0.07101,0.000794
aVR,21,0.07456,0.006504
aVR,22,0.07811,0.003977
aVR,23,0.08166,-0.003684
aVR,24,0.08521,-0.007822
aVR,25,0.08876,-0.004
aVR,26,0.09231,0.00334
aVR,27,0.09586,0.006025
aVR,28,0.09941,0.001206
aVR,29,0.10296,-0.005279
aVR,30,0.10651,-0.006542
aVR,31,0.11006,-0.001235
aVR,32,0.11361,0.005469
aVR,33,0.11716,0.00332
aVR,34,0.12071,-0.008557
aVR,35,0.12426,-0.016442
aVR,36,0.12781,-0.011579
aVR,37,0.13136,-0.001042
aVR,38,0.13491,0.006874
aVR,39,0.13846,0.009386
aVR,40,0.14201,0.005613
aVR,41,0.14556,0.003129
aVR,42,0.14911,0.004314
aVR,43,0.15266,0.003553
aVR,44,0.15621,0.002424
aVR,45,0.15976,-0.000422
aVR,46,0.16331,-0.005715
aVR,47,0.16686,-0.006083
aVR,48,0.17041,-0.001372
aVR,49,0.17396,0.001284
aVR,50,0.17751,0.002776
aVR,51,0.18107,0.004197
aVR,52,0.18462,0.002815
aVR,53,0.18817,0.00435
aVR,54,0.19172,0.006806
aVR,55,0.19527,0.002939
aVR,56,0.19882,-0.00183
aVR,57,0.20237,-0.005001
aVR,58,0.20592,-0.006747
aVR,59,0.20947,-0.004079
aVR,60,0.21302,-0.000178
aVR,61,0.21657,0.000131
aVR,62,0.22012,-0.003182
aVR,63,0.22367,-0.006551
aVR,64,0.22722,-0.006344
aVR,65,0.23077,-0.003
aVR,66,0.23432,-0.000445
aVR,67,0.23787,-0.001561
aVR,68,0.24142,-0.005081
aVR,69,0.24497,-0.007128
aVR,70,0.24852,-0.005589
aVR,71,0.25207,-0.002391
aVR,72,0.25562,-0.001223
aVR,73,0.25917,-0.003393
aVR,74,0.26272,-0.006472
aVR,75,0.26627,-0.007122
aVR,76,0.26982,-0.004782
aVR,77,0.27337,-0.002261
aVR,78,0.27692,-0.002453
aVR,79,0.28047,-0.005023
aVR,80,0.28402,-0.007396
aVR,81,0.28757,-0.006678
aVR,82,0.29112,-0.003907
aVR,83,0.29467,-0.003445
aVR,84,0.29822,-0.002482
aVR,85,0.30178,0.001
aVR,86,0.30533,0.002213
aVR,87,0.30888,0.00248
aVR,88,0.31243,0.004701
aVR,89,0.31598,0.00642
aVR,90,0.31953,0.002069
aVR,91,0.32308,-0.005985
aVR,92,0.32663,-0.007997
aVR,93,0.33018,-0.006125
aVR,94,0.33373,-0.002592
aVR,95,0.33728,0.00293
aVR,96,0.34083,0.003219
aVR,97,0.34438,0.000757
aVR,98,0.34793,0.001708
aVR,99,0.35148,0.003849
aVR,100,0.35503,0.004309
aVR,101,0.35858,0.003081
aVR,102,0.36213,0.002141
aVR,103,0.36568,-0.000409
aVR,104,0.36923,-0.005073
aVR,105,0.37278,-0.006793
aVR,106,0.37633,-0.003647
aVR,107,0.37988,0.000978
aVR,108,0.38343,0.001566
aVR,109,0.38698,0.000638
aVR,110,0.39053,0.003247
aVR,111,0.39408,0.002158
aVR,112,0.39763,-0.004774
aVR,113,0.40118,-0.008291
aVR,114,0.40473,-0.007954
aVR,115,0.40828,-0.007496
aVR,116,0.41183,-0.006387
aVR,117,0.41538,-0.005919
aVR,118,0.41893,-0.006948
aVR,119,0.42249,-0.008061
aVR,120,0.42604,-0.008181
aVR,121,0.42959,-0.00727
aVR,122,0.43314,-0.006421
aVR,123,0.43669,-0.006631
aVR,124,0.44024,-0.007656
aVR,125,0.44379,-0.008346
aVR,126,0.44734,-0.008017
aVR,127,0.45089,-0.007174
aVR,128,0.45444,-0.006695
aVR,129,0.45799,-0.007382
aVR,130,0.46154,-0.008212
aVR,131,0.46509,-0.008052
aVR,132,0.46864,-0.008682
aVR,133,0.47219,-0.006112
aVR,134,0.47574,0.001111
aVR,135,0.47929,0.000444
aVR,136,0.48284,-0.007372
aVR,137,0.48639,-0.00918
aVR,138,0.48994,-0.007406
aVR,139,0.49349,-0.007467
aVR,140,0.49704,-0.007793
aVR,141,0.50059,-0.008254
aVR,142,0.50414,-0.008605
aVR,143,0.50769,-0.008258
aVR,144,0.51124,-0.007805
aVR,145,0.51479,-0.007752
aVR,146,0.51834,-0.008159
aVR,147,0.52189,-0.008574
aVR,148,0.52544,-0.008571
aVR,149,0.52899,-0.008254
aVR,150,0.53254,-0.007901
aVR,151,0.53609,-0.008181
aVR,152,0.53964,-0.008532
aVR,153,0.5432,-0.008344
aVR,154,0.54675,-0.009369
aVR,155,0.5503,-0.007167
aVR,156,0.55385,0.000118
aVR,157,0.5574,-2.6e-05
aVR,158,0.56095,-0.007711
aVR,159,0.5645,-0.009543
aVR,160,0.56805,-0.007917
aVR,161,0.5716,-0.009225
aVR,162,0.57515,-0.007164
aVR,163,0.5787,-0.001073
aVR,164,0.58225,0.000849
aVR,165,0.5858,-0.00012
aVR,166,0.58935,0.000268
aVR,167,0.5929,0.000428
aVR,168,0.59645,0.000158
aVR,169,0.6,9.6e-05
aVR,170,0.60355,4e-05
aVR,171,0.6071,9.5e-05
aVR,172,0.61065,0.000185
aVR,173,0.6142,0.000166
aVR,174,0.61775,-5e-06
aVR,175,0.6213,0.000134
aVR,176,0.62485,-6.7e-05
aVR,177,0.6284,-0.000126
aVR,178,0.63195,0.000823
aVR,179,0.6355,-0.001623
aVR,180,0.63905,-0.006761
aVR,181,0.6426,-0.01098
aVR,182,0.64615,-0.016286
aVR,183,0.6497,-0.01852
aVR,184,0.65325,-0.017544
aVR,185,0.6568,-0.018556
aVR,186,0.66036,-0.016314
aVR,187,0.66391,-0.010994
aVR,188,0.66746,-0.00683
aVR,189,0.67101,-0.001804
aVR,190,0.67456,0.000583
aVR,191,0.67811,-0.000298
aVR,192,0.68166,-0.000125
aVR,193,0.68521,6.3e-05
aVR,194,0.68876,-0.000261
aVR,195,0.69231,-0.000274
aVR,196,0.69586,-0.000257
aVR,197,0.69941,-0.000117
aVR,198,0.70296,-2.2e-05
aVR,199,0.70651,-0.000162
aVR,200,0.71006,-0.00024
aVR,201,0.71361,-0.00044
aVR,202,0.71716,-0.000289
aVR,203,0.72071,0.000283
aVR,204,0.72426,-0.000892
aVR,205,0.72781,0.00086
aVR,206,0.73136,0.007939
aVR,207,0.73491,0.007957
aVR,208,0.73846,0.000892
aVR,209,0.74201,-0.000891
aVR,210,0.74556,0.000229
aVR,211,0.74911,-0.000375
aVR,212,0.75266,-0.000512
aVR,213,0.75621,-0.000271
aVR,214,0.75976,-0.000176
aVR,215,0.76331,-7.9e-05
aVR,216,0.76686,-0.000223
aVR,217,0.77041,-0.000409
aVR,218,0.77396,-0.000418
aVR,219,0.77751,-0.000266
aVR,220,0.78107,-0.000118
aVR,221,0.78462,-0.000145
aVR,222,0.78817,-0.000315
aVR,223,0.79172,-0.00043
aVR,224,0.79527,-0.000366
aVR,225,0.79882,-0.000202
aVR,226,0.80237,-0.000115
aVR,227,0.80592,-0.000223
aVR,228,0.80947,-0.000376
aVR,229,0.81302,-0.000389
aVR,230,0.81657,-0.000361
aVR,231,0.82012,-5.5e-05
aVR,232,0.82367,-0.000181
aVR,233,0.82722,-0.00054
aVR,234,0.83077,0.000415
aVR,235,0.83432,-0.001738
aVR,236,0.83787,-0.007693
aVR,237,0.84142,-0.009925
aVR,238,0.84497,-0.008802
aVR,239,0.84852,-0.008921
aVR,240,0.85207,-0.010134
aVR,241,0.85562,-0.007826
aVR,242,0.85917,-0.001463
aVR,243,0.86272,0.000627
aVR,244,0.86627,-0.000756
aVR,245,0.86982,0.000453
aVR,246,0.87337,-0.001577
aVR,247,0.87692,-0.007841
aVR,248,0.88047,-0.009836
aVR,249,0.88402,-0.0088
aVR,250,0.88757,-0.009111
aVR,251,0.89112,-0.009271
aVR,252,0.89467,-0.009098
aVR,253,0.89822,-0.009125
aVR,254,0.90178,-0.009052
aVR,255,0.90533,-0.009064
aVR,256,0.90888,-0.009106
aVR,257,0.91243,-0.009135
aVR,258,0.91598,-0.009156
aVR,259,0.91953,-0.009034
aVR,260,0.92308,-0.009148
aVR,261,0.92663,-0.009013
aVR,262,0.93018,-0.00884
aVR,263,0.93373,-0.009857
aVR,264,0.93728,-0.007847
aVR,265,0.94083,-0.001599
aVR,266,0.94438,0.00102
aVR,267,0.94793,-0.001221
aVR,268,0.95148,0.000897
aVR,269,0.95503,0.008208
aVR,270,0.95858,0.008038
aVR,271,0.96213,0.000938
aVR,272,0.96568,-0.000945
aVR,273,0.96923,0.000245
aVR,274,0.97278,-0.000203
aVR,275,0.97633,-0.000292
aVR,276,0.97988,-0.00014
aVR,277,0.98343,-0.000172
aVR,278,0.98698,-8.7e-05
aVR,279,0.99053,-0.000103
aVR,280,0.99408,-0.000165
aVR,281,0.99763,-0.000191
aVR,282,1.00118,-0.000173
aVR,283,1.00473,-0.00012
aVR,284,1.00828,-8.8e-05
aVR,285,1.01183,-0.000103
aVR,286,1.01538,-0.000145
aVR,287,1.01893,-0.000169
aVR,288,1.02249,-0.000152
aVR,289,1.02604,-0.000109
aVR,290,1.02959,-8.1e-05
aVR,291,1.03314,-9.2e-05
aVR,292,1.03669,-0.00013
aVR,293,1.04024,-0.000156
aVR,294,1.04379,-0.000143
aVR,295,1.04734,-0.000101
aVR,296,1.05089,-6.9e-05
aVR,297,1.05444,-7.9e-05
aVR,298,1.05799,-0.000123
aVR,299,1.06154,-0.000156
aVR,300,1.06509,-0.000142
aVR,301,1.06864,-9e-05
aVR,302,1.07219,-5.3e-05
aVR,303,1.07574,-7.1e-05
aVR,304,1.07929,-0.00013
aVR,305,1.08284,-0.000169
aVR,306,1.08639,-0.000142
aVR,307,1.08994,-7.4e-05
aVR,308,1.09349,-3.7e-05
aVR,309,1.09704,-7.7e-05
aVR,310,1.10059,-0.000155
aVR,311,1.10414,-0.000189
aVR,312,1.10769,-0.000139
aVR,313,1.11124,-4.7e-05
aVR,314,1.11479,-3.6e-05
aVR,315,1.11834,-0.000104
aVR,316,1.12189,-0.00017
aVR,317,1.12544,-0.000276
aVR,318,1.12899,-2.9e-05
aVR,319,1.13254,-5.8e-05
aVR,320,1.13609,-0.000301
aVR,321,1.13964,0.000664
aVR,322,1.1432,-0.001594
aVR,323,1.14675,-0.00776
aVR,324,1.1503,-0.009806
aVR,325,1.15385,-0.008644
aVR,326,1.1574,-0.00892
aVR,327,1.16095,-0.009177
aVR,328,1.1645,-0.00911
aVR,329,1.16805,-0.009165
aVR,330,1.1716,-0.008984
aVR,331,1.17515,-0.008898
aVR,332,1.1787,-0.009011
aVR,333,1.18225,-0.009081
aVR,334,1.1858,-0.009338
aVR,335,1.18935,-0.00913
aVR,336,1.1929,-0.00872
aVR,337,1.19645,-0.009727
aVR,338,1.2,-0.007696
aVR,339,1.20355,-0.001711
aVR,340,1.2071,0.000393
aVR,341,1.21065,-0.000535
aVR,342,1.2142,-0.000118
aVR,343,1.21775,1.2e-05
aVR,344,1.2213,-0.000336
aVR,345,1.22485,-0.000433
aVR,346,1.2284,-0.000453
aVR,347,1.23195,-0.000269
aVR,348,1.2355,-0.000105
aVR,349,1.23905,-0.000174
aVR,350,1.2426,-0.000396
aVR,351,1.24615,-0.000551
aVR,352,1.2497,-0.000466
aVR,353,1.25325,-0.000266
aVR,354,1.2568,-0.00015
aVR,355,1.26036,-0.000273
aVR,356,1.26391,-0.000607
aVR,357,1.26746,-0.000511
aVR,358,1.27101,-0.000579
aVR,359,1.27456,-0.000427
aVR,360,1.27811,0.000565
aVR,361,1.28166,-0.002076
aVR,362,1.28521,-0.007368
aVR,363,1.28876,-0.011783
aVR,364,1.29231,-0.016718
aVR,365,1.29586,-0.018549
aVR,366,1.29941,-0.018484
aVR,367,1.30296,-0.017745
aVR,368,1.30651,-0.009844
aVR,369,1.31006,-0.001232
aVR,370,1.31361,3.5e-05
aVR,371,1.31716,-0.000661
aVR,372,1.32071,-0.00036
aVR,373,1.32426,-0.000895
aVR,374,1.32781,-0.000972
aVR,375,1.33136,-0.000491
aVR,376,1.33491,-0.001319
aVR,377,1.33846,0.000885
aVR,378,1.34201,0.006802
aVR,379,1.34556,0.008665
aVR,380,1.34911,0.007585
aVR,381,1.35266,0.008081
aVR,382,1.35621,0.008417
aVR,383,1.35976,0.008163
aVR,384,1.36331,0.007934
aVR,385,1.36686,0.007693
aVR,386,1.37041,0.007793
aVR,387,1.37396,0.008085
aVR,388,1.37751,0.008196
aVR,389,1.38107,0.007998
aVR,390,1.38462,0.007676
aVR,391,1.38817,0.007563
aVR,392,1.39172,0.007761
aVR,393,1.39527,0.008018
aVR,394,1.39882,0.00802
aVR,395,1.40237,0.007744
aVR,396,1.40592,0.00745
aVR,397,1.40947,0.00746
aVR,398,1.41302,0.007736
aVR,399,1.41657,0.007851
aVR,400,1.42012,0.007892
aVR,401,1.42367,0.007415
aVR,402,1.42722,0.007066
aVR,403,1.43077,0.008093
aVR,404,1.43432,0.006338
aVR,405,1.43787,0.000468
aVR,406,1.44142,-0.002992
aVR,407,1.44497,-6.4e-05
aVR,408,1.44852,0.005727
aVR,409,1.45207,0.00815
aVR,410,1.45562,0.007321
aVR,411,1.45917,0.00725
aVR,412,1.46272,0.007984
aVR,413,1.46627,0.005553
aVR,414,1.46982,-0.000226
aVR,415,1.47337,-0.003213
aVR,416,1.47692,0.00012
aVR,417,1.48047,0.00585
aVR,418,1.48402,0.007568
aVR,419,1.48757,0.00659
aVR,420,1.49112,0.006831
aVR,421,1.49467,0.007358
aVR,422,1.49822,0.007045
aVR,423,1.50178,0.00661
aVR,424,1.50533,0.007418
aVR,425,1.50888,0.005269
aVR,426,1.51243,-0.000693
aVR,427,1.51598,-0.00274
aVR,428,1.51953,-0.001801
aVR,429,1.52308,-0.002303
aVR,430,1.52663,-0.002568
aVR,431,1.53018,-0.00232
aVR,432,1.53373,-0.002248
aVR,433,1.53728,-0.00221
aVR,434,1.54083,-0.002368
aVR,435,1.54438,-0.002589
aVR,436,1.54793,-0.002666
aVR,437,1.55148,-0.002484
aVR,438,1.55503,-0.002557
aVR,439,1.55858,-0.002487
aVR,440,1.56213,-0.002416
aVR,441,1.56568,-0.003625
aVR,442,1.56923,-0.001476
aVR,443,1.57278,0.004776
aVR,444,1.57633,0.00696
aVR,445,1.57988,0.005811
aVR,446,1.58343,0.005894
aVR,447,1.58698,0.005929
aVR,448,1.59053,0.005803
aVR,449,1.59408,0.005851
aVR,450,1.59763,0.005962
aVR,451,1.60118,0.005744
aVR,452,1.60473,0.005395
aVR,453,1.60828,0.006379
aVR,454,1.61183,0.004331
aVR,455,1.61538,-0.002001
aVR,456,1.61893,-0.004097
aVR,457,1.62249,-0.002892
aVR,458,1.62604,-0.004281
aVR,459,1.62959,-0.002262
aVR,460,1.63314,0.004084
aVR,461,1.63669,0.006119
aVR,462,1.64024,0.004991
aVR,463,1.64379,0.005146
aVR,464,1.64734,0.005225
aVR,465,1.65089,0.005056
aVR,466,1.65444,0.005128
aVR,467,1.65799,0.005043
aVR,468,1.66154,0.004863
aVR,469,1.66509,0.004978
aVR,470,1.66864,0.004819
aVR,471,1.67219,0.004685
aVR,472,1.67574,0.005526
aVR,473,1.67929,0.00337
aVR,474,1.68284,-0.002634
aVR,475,1.68639,-0.005983
aVR,476,1.68994,-0.002583
aVR,477,1.69349,0.003334
aVR,478,1.69704,0.004891
aVR,479,1.70059,0.00501
aVR,480,1.70414,0.003124
aVR,481,1.70769,-0.003947
aVR,482,1.71124,-0.004112
aVR,483,1.71479,0.0034
aVR,484,1.71834,0.005069
aVR,485,1.72189,0.003413
aVR,486,1.72544,0.004735
aVR,487,1.72899,0.002742
aVR,488,1.73254,-0.003586
aVR,489,1.73609,-0.005484
aVR,490,1.73964,-0.004419
aVR,491,1.7432,-0.006008
aVR,492,1.74675,-0.004058
aVR,493,1.7503,0.00233
aVR,494,1.75385,0.004785
aVR,495,1.7574,0.003613
aVR,496,1.76095,0.003309
aVR,497,1.7645,0.00415
aVR,498,1.76805,0.001796
aVR,499,1.7716,-0.00403
aVR,500,1.77515,-0.005964
aVR,501,1.7787,-0.005032
aVR,502,1.78225,-0.00571
aVR,503,1.7858,-0.00608
aVR,504,1.78935,-0.005963
aVR,505,1.7929,-0.005522
aVR,506,1.79645,-0.005172
aVR,507,1.8,-0.006375
aVR,508,1.80355,-0.004865
aVR,509,1.8071,0.000871
aVR,510,1.81065,0.004413
aVR,511,1.8142,0.001611
aVR,512,1.81775,-0.004347
aVR,513,1.8213,-0.006793
aVR,514,1.82485,-0.006558
aVR,515,1.8284,-0.006567
aVR,516,1.83195,-0.00599
aVR,517,1.8355,-0.006545
aVR,518,1.83905,-0.004714
aVR,519,1.8426,0.000844
aVR,520,1.84615,0.002651
aVR,521,1.8497,0.001865
aVR,522,1.85325,0.002682
aVR,523,1.8568,0.002944
aVR,524,1.86036,0.002271
aVR,525,1.86391,0.001696
aVR,526,1.86746,0.001589
aVR,527,1.87101,0.002136
aVR,528,1.87456,0.00258
aVR,529,1.87811,0.002606
aVR,530,1.88166,0.00167
aVR,531,1.88521,0.001115
aVR,532,1.88876,0.00223
aVR,533,1.89231,0.000573
aVR,534,1.89586,-0.00413
aVR,535,1.89941,-0.009372
aVR,536,1.90296,-0.01439
aVR,537,1.90651,-0.017953
aVR,538,1.91006,-0.025422
aVR,539,1.91361,-0.031995
aVR,540,1.91716,-0.02591
aVR,541,1.92071,-0.014887
aVR,542,1.92426,-0.009818
aVR,543,1.92781,-0.006171
aVR,544,1.93136,0.00012
aVR,545,1.93491,0.002898
aVR,546,1.93846,0.001568
aVR,547,1.94201,0.000845
aVR,548,1.94556,0.000588
aVR,549,1.94911,0.00085
aVR,550,1.95266,0.001723
aVR,551,1.95621,0.001919
aVR,552,1.95976,0.001248
aVR,553,1.96331,0.00045
aVR,554,1.96686,0.000367
aVR,555,1.97041,0.000998
aVR,556,1.97396,0.001841
aVR,557,1.97751,0.00155
aVR,558,1.98107,0.000536
aVR,559,1.98462,0.000818
aVR,560,1.98817,-0.000921
aVR,561,1.99172,-0.006089
aVR,562,1.99527,-0.008724
aVR,563,1.99882,-0.006148
aVR,564,2.00237,-0.001255
aVR,565,2.00592,0.001386
aVR,566,2.00947,-0.000953
aVR,567,2.01302,-0.005933
aVR,568,2.01657,-0.008951
aVR,569,2.02012,-0.006643
aVR,570,2.02367,-0.001327
aVR,571,2.02722,0.000685
aVR,572,2.03077,0.000696
aVR,573,2.03432,0.001397
aVR,574,2.03787,0.000839
aVR,575,2.04142,0.001045
aVR,576,2.04497,-0.001229
aVR,577,2.04852,-0.008073
aVR,578,2.05207,-0.007303
aVR,579,2.05562,0.000201
aVR,580,2.05917,0.00156
aVR,581,2.06272,-0.000351
aVR,582,2.06627,-3.9e-05
aVR,583,2.06982,0.000612
aVR,584,2.07337,0.001101
aVR,585,2.07692,0.00113
aVR,586,2.08047,0.000424
aVR,587,2.08402,-8.8e-05
aVR,588,2.08757,0.000127
aVR,589,2.09112,0.000806
aVR,590,2.09467,0.001212
aVR,591,2.09822,0.000907
aVR,592,2.10178,0.000235
aVR,593,2.10533,-2.1e-05
aVR,594,2.10888,0.000435
aVR,595,2.11243,0.000989
aVR,596,2.11598,0.001309
aVR,597,2.11953,0.00071
aVR,598,2.12308,-8.1e-05
aVR,599,2.12663,0.000996
aVR,600,2.13018,-0.000594
aVR,601,2.13373,-0.006264
aVR,602,2.13728,-0.00851
aVR,603,2.14083,-0.007988
aVR,604,2.14438,-0.008585
aVR,605,2.14793,-0.00845
aVR,606,2.15148,-0.007693
aVR,607,2.15503,-0.007467
aVR,608,2.15858,-0.007729
aVR,609,2.16213,-0.008257
aVR,610,2.16568,-0.008296
aVR,611,2.16923,-0.008008
aVR,612,2.17278,-0.007373
aVR,613,2.17633,-0.007054
aVR,614,2.17988,-0.008496
aVR,615,2.18343,-0.006803
aVR,616,2.18698,-0.000315
aVR,617,2.19053,0.002242
aVR,618,2.19408,0.001292
aVR,619,2.19763,0.002549
aVR,620,2.20118,-7.7e-05
aVR,621,2.20473,-0.006429
aVR,622,2.20828,-0.007908
aVR,623,2.21183,-0.007138
aVR,624,2.21538,-0.005078
aVR,625,2.21893,0.000679
aVR,626,2.22249,0.003668
aVR,627,2.22604,0.000641
aVR,628,2.22959,-0.00448
aVR,629,2.23314,-0.007042
aVR,630,2.23669,-0.003829
aVR,631,2.24024,0.001931
aVR,632,2.24379,0.004028
aVR,633,2.24734,0.003326
aVR,634,2.25089,0.003825
aVR,635,2.25444,0.00545
aVR,636,2.25799,0.003181
aVR,637,2.26154,-0.003041
aVR,638,2.26509,-0.00514
aVR,639,2.26864,-0.003657
aVR,640,2.27219,-0.003349
aVR,641,2.27574,-0.003153
aVR,642,2.27929,-0.002959
aVR,643,2.28284,-0.003083
aVR,644,2.28639,-0.002861
aVR,645,2.28994,-0.002393
aVR,646,2.29349,-0.001911
aVR,647,2.29704,-0.001632
aVR,648,2.30059,-0.001593
aVR,649,2.30414,-0.001545
aVR,650,2.30769,-0.001264
aVR,651,2.31124,-0.000775
aVR,652,2.31479,-0.000309
aVR,653,2.31834,-6.2e-05
aVR,654,2.32189,4e-06
aVR,655,2.32544,0.000122
aVR,656,2.32899,0.000466
aVR,657,2.33254,0.000979
aVR,658,2.33609,0.001433
aVR,659,2.33964,0.00167
aVR,660,2.3432,0.001761
aVR,661,2.34675,0.001934
aVR,662,2.3503,0.002337
aVR,663,2.35385,0.002883
aVR,664,2.3574,0.003335
aVR,665,2.36095,0.003567
aVR,666,2.3645,0.003669
aVR,667,2.36805,0.003888
aVR,668,2.3716,0.004391
aVR,669,2.37515,0.004914
aVR,670,2.3787,0.005437
aVR,671,2.38225,0.005684
aVR,672,2.3858,0.005442
aVR,673,2.38935,0.006578
aVR,674,2.3929,0.006036
aVR,675,2.39645,-0.001673
aVL,0,0.0,-0.053689
aVL,1,0.00355,-0.042411
aVL,2,0.0071,0.071133
aVL,3,0.01065,0.054969
aVL,4,0.0142,-0.09042
aVL,5,0.01775,-0.129216
aVL,6,0.0213,-0.105897
aVL,7,0.02485,-0.118261
aVL,8,0.0284,-0.121866
aVL,9,0.03195,-0.11352
aVL,10,0.0355,-0.110261
aVL,11,0.03905,-0.110371
aVL,12,0.0426,-0.111873
aVL,13,0.04615,-0.109254
aVL,14,0.0497,-0.102446
aVL,15,0.05325,-0.096152
aVL,16,0.0568,-0.094144
aVL,17,0.06036,-0.095487
aVL,18,0.06391,-0.095481
aVL,19,0.06746,-0.091095
aVL,20,0.07101,-0.084327
aVL,21,0.07456,-0.079798
aVL,22,0.07811,-0.07952
aVL,23,0.08166,-0.080708
aVL,24,0.08521,-0.079023
aVL,25,0.08876,-0.073488
aVL,26,0.09231,-0.067502
aVL,27,0.09586,-0.064908
aVL,28,0.09941,-0.065661
aVL,29,0.10296,-0.065982
aVL,30,0.10651,-0.062654
aVL,31,0.11006,-0.056715
aVL,32,0.11361,-0.052142
aVL,33,0.11716,-0.051173
aVL,34,0.12071,-0.05236
aVL,35,0.12426,-0.051204
aVL,36,0.12781,-0.046353
aVL,37,0.13136,-0.041935
aVL,38,0.13491,-0.036707
aVL,39,0.13846,-0.031009
aVL,40,0.14201,-0.02961
aVL,41,0.14556,-0.027092
aVL,42,0.14911,-0.023746
aVL,43,0.15266,-0.025269
aVL,44,0.15621,-0.026398
aVL,45,0.15976,-0.026042
aVL,46,0.16331,-0.025938
aVL,47,0.16686,-0.022088
aVL,48,0.17041,-0.016455
aVL,49,0.17396,-0.014673
aVL,50,0.17751,-0.012448
aVL,51,0.18107,-0.007101
aVL,52,0.18462,-0.003242
aVL,53,0.18817,0.001459
aVL,54,0.19172,0.003929
aVL,55,0.19527,-0.000624
aVL,56,0.19882,-0.004105
aVL,57,0.20237,-0.002507
aVL,58,0.20592,0.000658
aVL,59,0.20947,0.004132
aVL,60,0.21302,0.010613
aVL,61,0.21657,0.014442
aVL,62,0.22012,0.009485
aVL,63,0.22367,0.007711
aVL,64,0.22722,0.013371
aVL,65,0.23077,0.017648
aVL,66,0.23432,0.018808
aVL,67,0.23787,0.017959
aVL,68,0.24142,0.017511
aVL,69,0.24497,0.020421
aVL,70,0.24852,0.025279
aVL,71,0.25207,0.028485
aVL,72,0.25562,0.02833
aVL,73,0.25917,0.026875
aVL,74,0.26272,0.027732
aVL,75,0.26627,0.031902
aVL,76,0.26982,0.036503
aVL,77,0.27337,0.038087
aVL,78,0.27692,0.036725
aVL,79,0.28047,0.0355
aVL,80,0.28402,0.03801
aVL,81,0.28757,0.043217
aVL,82,0.29112,0.045765
aVL,83,0.29467,0.047748
aVL,84,0.29822,0.051813
aVL,85,0.30178,0.053921
aVL,86,0.30533,0.056935
aVL,87,0.30888,0.062119
aVL,88,0.31243,0.064021
aVL,89,0.31598,0.063112
aVL,90,0.31953,0.059083
aVL,91,0.32308,0.054375
aVL,92,0.32663,0.057467
aVL,93,0.33018,0.063029
aVL,94,0.33373,0.061931
aVL,95,0.33728,0.060915
aVL,96,0.34083,0.066014
aVL,97,0.34438,0.072489
aVL,98,0.34793,0.07497
aVL,99,0.35148,0.072218
aVL,100,0.35503,0.066992
aVL,101,0.35858,0.066729
aVL,102,0.36213,0.074236
aVL,103,0.36568,0.079368
aVL,104,0.36923,0.077794
aVL,105,0.37278,0.075237
aVL,106,0.37633,0.075181
aVL,107,0.37988,0.07835
aVL,108,0.38343,0.082995
aVL,109,0.38698,0.08937
aVL,110,0.39053,0.091182
aVL,111,0.39408,0.083292
aVL,112,0.39763,0.076553
aVL,113,0.40118,0.076918
aVL,114,0.40473,0.081664
aVL,115,0.40828,0.087866
aVL,116,0.41183,0.089541
aVL,117,0.41538,0.085305
aVL,118,0.41893,0.081206
aVL,119,0.42249,0.082897
aVL,120,0.42604,0.089665
aVL,121,0.42959,0.094915
aVL,122,0.43314,0.093512
aVL,123,0.43669,0.087826
aVL,124,0.44024,0.085194
aVL,125,0.44379,0.089704
aVL,126,0.44734,0.09732
aVL,127,0.45089,0.100251
aVL,128,0.45444,0.095972
aVL,129,0.45799,0.089747
aVL,130,0.46154,0.089753
aVL,131,0.46509,0.097263
aVL,132,0.46864,0.103203
aVL,133,0.47219,0.104878
aVL,134,0.47574,0.105293
aVL,135,0.47929,0.100233
aVL,136,0.48284,0.096298
aVL,137,0.48639,0.103277
aVL,138,0.48994,0.109647
aVL,139,0.49349,0.105317
aVL,140,0.49704,0.097093
aVL,141,0.50059,0.094652
aVL,142,0.50414,0.101375
aVL,143,0.50769,0.110765
aVL,144,0.51124,0.112625
aVL,145,0.51479,0.105172
aVL,146,0.51834,0.097167
aVL,147,0.52189,0.098296
aVL,148,0.52544,0.108108
aVL,149,0.52899,0.116195
aVL,150,0.53254,0.113825
aVL,151,0.53609,0.103564
aVL,152,0.53964,0.097697
aVL,153,0.5432,0.103377
aVL,154,0.54675,0.114089
aVL,155,0.5503,0.121157
aVL,156,0.55385,0.119938
aVL,157,0.5574,0.112055
aVL,158,0.56095,0.106406
aVL,159,0.5645,0.110523
aVL,160,0.56805,0.120268
aVL,161,0.5716,0.120444
aVL,162,0.57515,0.111107
aVL,163,0.5787,0.106928
aVL,164,0.58225,0.112139
aVL,165,0.5858,0.124412
aVL,166,0.58935,0.133887
aVL,167,0.5929,0.1286
aVL,168,0.59645,0.114266
aVL,169,0.6,0.107381
aVL,170,0.60355,0.116228
aVL,171,0.6071,0.131216
aVL,172,0.61065,0.135536
aVL,173,0.6142,0.125321
aVL,174,0.61775,0.108323
aVL,175,0.6213,0.108876
aVL,176,0.62485,0.12541
aVL,177,0.6284,0.126362
aVL,178,0.63195,0.153057
aVL,179,0.6355,0.10388
aVL,180,0.63905,0.072638
aVL,181,0.6426,0.218666
aVL,182,0.64615,-0.114009
aVL,183,0.6497,-0.544989
aVL,184,0.65325,-0.12224
aVL,185,0.6568,0.209372
aVL,186,0.66036,0.064102
aVL,187,0.66391,0.093633
aVL,188,0.66746,0.144968
aVL,189,0.67101,0.124731
aVL,190,0.67456,0.126048
aVL,191,0.67811,0.108373
aVL,192,0.68166,0.107714
aVL,193,0.68521,0.124548
aVL,194,0.68876,0.134617
aVL,195,0.69231,0.130657
aVL,196,0.69586,0.115813
aVL,197,0.69941,0.106772
aVL,198,0.70296,0.113378
aVL,199,0.70651,0.127276
aVL,200,0.71006,0.132814
aVL,201,0.71361,0.123931
aVL,202,0.71716,0.110652
aVL,203,0.72071,0.107502
aVL,204,0.72426,0.117282
aVL,205,0.72781,0.128467
aVL,206,0.73136,0.128391
aVL,207,0.73491,0.11723
aVL,208,0.73846,0.107344
aVL,209,0.74201,0.109224
aVL,210,0.74556,0.120018
aVL,211,0.74911,0.127156
aVL,212,0.75266,0.12254
aVL,213,0.75621,0.111293
aVL,214,0.75976,0.105638
aVL,215,0.76331,0.111186
aVL,216,0.76686,0.120998
aVL,217,0.77041,0.123687
aVL,218,0.77396,0.116109
aVL,219,0.77751,0.10653
aVL,220,0.78107,0.105103
aVL,221,0.78462,0.112626
aVL,222,0.78817,0.120002
aVL,223,0.79172,0.118621
aVL,224,0.79527,0.109815
aVL,225,0.79882,0.103034
aVL,226,0.80237,0.105152
aVL,227,0.80592,0.112954
aVL,228,0.80947,0.117112
aVL,229,0.81302,0.112636
aVL,230,0.81657,0.104094
aVL,231,0.82012,0.100723
aVL,232,0.82367,0.105131
aVL,233,0.82722,0.111582
aVL,234,0.83077,0.113438
aVL,235,0.83432,0.105002
aVL,236,0.83787,0.091757
aVL,237,0.84142,0.08928
aVL,238,0.84497,0.096197
aVL,239,0.84852,0.099515
aVL,240,0.85207,0.099485
aVL,241,0.85562,0.098802
aVL,242,0.85917,0.096391
aVL,243,0.86272,0.097219
aVL,244,0.86627,0.102717
aVL,245,0.86982,0.106008
aVL,246,0.87337,0.0995
aVL,247,0.87692,0.087031
aVL,248,0.88047,0.082653
aVL,249,0.88402,0.087239
aVL,250,0.88757,0.091414
aVL,251,0.89112,0.090928
aVL,252,0.89467,0.085771
aVL,253,0.89822,0.080659
aVL,254,0.90178,0.080698
aVL,255,0.90533,0.084792
aVL,256,0.90888,0.087475
aVL,257,0.91243,0.085043
aVL,258,0.91598,0.079629
aVL,259,0.91953,0.076216
aVL,260,0.92308,0.078049
aVL,261,0.92663,0.082022
aVL,262,0.93018,0.081687
aVL,263,0.93373,0.080145
aVL,264,0.93728,0.081187
aVL,265,0.94083,0.082243
aVL,266,0.94438,0.083934
aVL,267,0.94793,0.085602
aVL,268,0.95148,0.087877
aVL,269,0.95503,0.087274
aVL,270,0.95858,0.079641
aVL,271,0.96213,0.076587
aVL,272,0.96568,0.080725
aVL,273,0.96923,0.08195
aVL,274,0.97278,0.079152
aVL,275,0.97633,0.075036
aVL,276,0.97988,0.072628
aVL,277,0.98343,0.073948
aVL,278,0.98698,0.076345
aVL,279,0.99053,0.076174
aVL,280,0.99408,0.072803
aVL,281,0.99763,0.069065
aVL,282,1.00118,0.068132
aVL,283,1.00473,0.069956
aVL,284,1.00828,0.071444
aVL,285,1.01183,0.069988
aVL,286,1.01538,0.066305
aVL,287,1.01893,0.063538
aVL,288,1.02249,0.0637
aVL,289,1.02604,0.065503
aVL,290,1.02959,0.06589
aVL,291,1.03314,0.06347
aVL,292,1.03669,0.059991
aVL,293,1.04024,0.0583
aVL,294,1.04379,0.059167
aVL,295,1.04734,0.060511
aVL,296,1.05089,0.059796
aVL,297,1.05444,0.056842
aVL,298,1.05799,0.053939
aVL,299,1.06154,0.053235
aVL,300,1.06509,0.054374
aVL,301,1.06864,0.054975
aVL,302,1.07219,0.053332
aVL,303,1.07574,0.050272
aVL,304,1.07929,0.04815
aVL,305,1.08284,0.048201
aVL,306,1.08639,0.049214
aVL,307,1.08994,0.048957
aVL,308,1.09349,0.046676
aVL,309,1.09704,0.043871
aVL,310,1.10059,0.04257
aVL,311,1.10414,0.043061
aVL,312,1.10769,0.04364
aVL,313,1.11124,0.042577
aVL,314,1.11479,0.039979
aVL,315,1.11834,0.037689
aVL,316,1.12189,0.03713
aVL,317,1.12544,0.037638
aVL,318,1.12899,0.037769
aVL,319,1.13254,0.035928
aVL,320,1.13609,0.033127
aVL,321,1.13964,0.032537
aVL,322,1.1432,0.0303
aVL,323,1.14675,0.024528
aVL,324,1.1503,0.021668
aVL,325,1.15385,0.020619
aVL,326,1.1574,0.018115
aVL,327,1.16095,0.016964
aVL,328,1.1645,0.017287
aVL,329,1.16805,0.017188
aVL,330,1.1716,0.015923
aVL,331,1.17515,0.013689
aVL,332,1.1787,0.011894
aVL,333,1.18225,0.011367
aVL,334,1.1858,0.011463
aVL,335,1.18935,0.011028
aVL,336,1.1929,0.009159
aVL,337,1.19645,0.007192
aVL,338,1.2,0.006148
aVL,339,1.20355,0.004839
aVL,340,1.2071,0.006878
aVL,341,1.21065,0.012041
aVL,342,1.2142,0.012312
aVL,343,1.21775,0.009467
aVL,344,1.2213,0.008856
aVL,345,1.22485,0.008807
aVL,346,1.2284,0.008167
aVL,347,1.23195,0.006879
aVL,348,1.2355,0.004995
aVL,349,1.23905,0.00359
aVL,350,1.2426,0.003039
aVL,351,1.24615,0.002746
aVL,352,1.2497,0.001916
aVL,353,1.25325,0.000327
aVL,354,1.2568,-0.001343
aVL,355,1.26036,-0.002365
aVL,356,1.26391,-0.002899
aVL,357,1.26746,-0.003244
aVL,358,1.27101,-0.004495
aVL,359,1.27456,-0.00637
aVL,360,1.27811,-0.00666
aVL,361,1.28166,-0.009622
aVL,362,1.28521,-0.016388
aVL,363,1.28876,-0.018974
aVL,364,1.29231,-0.019809
aVL,365,1.29586,-0.025357
aVL,366,1.29941,-0.031617
aVL,367,1.30296,-0.031574
aVL,368,1.30651,-0.023519
aVL,369,1.31006,-0.016299
aVL,370,1.31361,-0.016547
aVL,371,1.31716,-0.018715
aVL,372,1.32071,-0.019244
aVL,373,1.32426,-0.020087
aVL,374,1.32781,-0.020777
aVL,375,1.33136,-0.021565
aVL,376,1.33491,-0.023983
aVL,377,1.33846,-0.023004
aVL,378,1.34201,-0.01767
aVL,379,1.34556,-0.016191
aVL,380,1.34911,-0.018095
aVL,381,1.35266,-0.018998
aVL,382,1.35621,-0.02013
aVL,383,1.35976,-0.021353
aVL,384,1.36331,-0.022044
aVL,385,1.36686,-0.022786
aVL,386,1.37041,-0.023708
aVL,387,1.37396,-0.02485
aVL,388,1.37751,-0.026026
aVL,389,1.38107,-0.026975
aVL,390,1.38462,-0.027721
aVL,391,1.38817,-0.028484
aVL,392,1.39172,-0.029454
aVL,393,1.39527,-0.030589
aVL,394,1.39882,-0.031657
aVL,395,1.40237,-0.032538
aVL,396,1.40592,-0.033268
aVL,397,1.40947,-0.034044
aVL,398,1.41302,-0.035136
aVL,399,1.41657,-0.036048
aVL,400,1.42012,-0.037165
aVL,401,1.42367,-0.038237
aVL,402,1.42722,-0.037807
aVL,403,1.43077,-0.040963
aVL,404,1.43432,-0.04801
aVL,405,1.43787,-0.050984
aVL,406,1.44142,-0.051892
aVL,407,1.44497,-0.050699
aVL,408,1.44852,-0.045437
aVL,409,1.45207,-0.043807
aVL,410,1.45562,-0.046121
aVL,411,1.45917,-0.046999
aVL,412,1.46272,-0.046792
aVL,413,1.46627,-0.049683
aVL,414,1.46982,-0.056228
aVL,415,1.47337,-0.060391
aVL,416,1.47692,-0.05817
aVL,417,1.48047,-0.053105
aVL,418,1.48402,-0.051876
aVL,419,1.48757,-0.053241
aVL,420,1.49112,-0.053968
aVL,421,1.49467,-0.054998
aVL,422,1.49822,-0.055044
aVL,423,1.50178,-0.057907
aVL,424,1.50533,-0.064717
aVL,425,1.50888,-0.067523
aVL,426,1.51243,-0.067261
aVL,427,1.51598,-0.068439
aVL,428,1.51953,-0.069399
aVL,429,1.52308,-0.069886
aVL,430,1.52663,-0.070556
aVL,431,1.53018,-0.071225
aVL,432,1.53373,-0.072071
aVL,433,1.53728,-0.072948
aVL,434,1.54083,-0.07363
aVL,435,1.54438,-0.074201
aVL,436,1.54793,-0.074826
aVL,437,1.55148,-0.075483
aVL,438,1.55503,-0.076475
aVL,439,1.55858,-0.077091
aVL,440,1.56213,-0.077432
aVL,441,1.56568,-0.079037
aVL,442,1.56923,-0.077517
aVL,443,1.57278,-0.072099
aVL,444,1.57633,-0.070687
aVL,445,1.57988,-0.072358
aVL,446,1.58343,-0.072638
aVL,447,1.58698,-0.073061
aVL,448,1.59053,-0.073864
aVL,449,1.59408,-0.074575
aVL,450,1.59763,-0.075075
aVL,451,1.60118,-0.075696
aVL,452,1.60473,-0.07641
aVL,453,1.60828,-0.075945
aVL,454,1.61183,-0.078662
aVL,455,1.61538,-0.08563
aVL,456,1.61893,-0.088186
aVL,457,1.62249,-0.087322
aVL,458,1.62604,-0.08911
aVL,459,1.62959,-0.087642
aVL,460,1.63314,-0.081896
aVL,461,1.63669,-0.080353
aVL,462,1.64024,-0.081829
aVL,463,1.64379,-0.081989
aVL,464,1.64734,-0.082368
aVL,465,1.65089,-0.083055
aVL,466,1.65444,-0.083448
aVL,467,1.65799,-0.084003
aVL,468,1.66154,-0.084207
aVL,469,1.66509,-0.084719
aVL,470,1.66864,-0.085447
aVL,471,1.67219,-0.084737
aVL,472,1.67574,-0.087481
aVL,473,1.67929,-0.093903
aVL,474,1.68284,-0.096141
aVL,475,1.68639,-0.096617
aVL,476,1.68994,-0.094945
aVL,477,1.69349,-0.089272
aVL,478,1.69704,-0.087668
aVL,479,1.70059,-0.087984
aVL,480,1.70414,-0.089996
aVL,481,1.70769,-0.097432
aVL,482,1.71124,-0.097964
aVL,483,1.71479,-0.090683
aVL,484,1.71834,-0.089167
aVL,485,1.72189,-0.090959
aVL,486,1.72544,-0.089868
aVL,487,1.72899,-0.092166
aVL,488,1.73254,-0.098755
aVL,489,1.73609,-0.100794
aVL,490,1.73964,-0.099795
aVL,491,1.7432,-0.101494
aVL,492,1.74675,-0.099757
aVL,493,1.7503,-0.093612
aVL,494,1.75385,-0.091314
aVL,495,1.7574,-0.092522
aVL,496,1.76095,-0.092833
aVL,497,1.7645,-0.092083
aVL,498,1.76805,-0.094619
aVL,499,1.7716,-0.100607
aVL,500,1.77515,-0.102583
aVL,501,1.7787,-0.101594
aVL,502,1.78225,-0.102238
aVL,503,1.7858,-0.102681
aVL,504,1.78935,-0.102696
aVL,505,1.7929,-0.102314
aVL,506,1.79645,-0.10189
aVL,507,1.8,-0.102962
aVL,508,1.80355,-0.10139
aVL,509,1.8071,-0.095704
aVL,510,1.81065,-0.092221
aVL,511,1.8142,-0.094965
aVL,512,1.81775,-0.100739
aVL,513,1.8213,-0.102998
aVL,514,1.82485,-0.102684
aVL,515,1.8284,-0.102706
aVL,516,1.83195,-0.102091
aVL,517,1.8355,-0.102461
aVL,518,1.83905,-0.100351
aVL,519,1.8426,-0.09457
aVL,520,1.84615,-0.092668
aVL,521,1.8497,-0.093407
aVL,522,1.85325,-0.092433
aVL,523,1.8568,-0.091858
aVL,524,1.86036,-0.092189
aVL,525,1.86391,-0.092501
aVL,526,1.86746,-0.092506
aVL,527,1.87101,-0.091846
aVL,528,1.87456,-0.090989
aVL,529,1.87811,-0.090799
aVL,530,1.88166,-0.091034
aVL,531,1.88521,-0.091239
aVL,532,1.88876,-0.091289
aVL,533,1.89231,-0.08935
aVL,534,1.89586,-0.089824
aVL,535,1.89941,-0.098302
aVL,536,1.90296,-0.10605
aVL,537,1.90651,-0.109243
aVL,538,1.91006,-0.113598
aVL,539,1.91361,-0.115723
aVL,540,1.91716,-0.112709
aVL,541,1.92071,-0.105799
aVL,542,1.92426,-0.095789
aVL,543,1.92781,-0.087918
aVL,544,1.93136,-0.085531
aVL,545,1.93491,-0.08512
aVL,546,1.93846,-0.084622
aVL,547,1.94201,-0.084921
aVL,548,1.94556,-0.085049
aVL,549,1.94911,-0.084115
aVL,550,1.95266,-0.082749
aVL,551,1.95621,-0.081826
aVL,552,1.95976,-0.081837
aVL,553,1.96331,-0.082143
aVL,554,1.96686,-0.081735
aVL,555,1.97041,-0.080497
aVL,556,1.97396,-0.078903
aVL,557,1.97751,-0.078437
aVL,558,1.98107,-0.078822
aVL,559,1.98462,-0.077994
aVL,560,1.98817,-0.079111
aVL,561,1.99172,-0.083495
aVL,562,1.99527,-0.085275
aVL,563,1.99882,-0.081937
aVL,564,2.00237,-0.076415
aVL,565,2.00592,-0.07314
aVL,566,2.00947,-0.074682
aVL,567,2.01302,-0.078724
aVL,568,2.01657,-0.08084
aVL,569,2.02012,-0.077776
aVL,570,2.02367,-0.071816
aVL,571,2.02722,-0.069008
aVL,572,2.03077,-0.067992
aVL,573,2.03432,-0.066364
aVL,574,2.03787,-0.065761
aVL,575,2.04142,-0.065103
aVL,576,2.04497,-0.066737
aVL,577,2.04852,-0.071305
aVL,578,2.05207,-0.072621
aVL,579,2.05562,-0.068047
aVL,580,2.05917,-0.061785
aVL,581,2.06272,-0.059693
aVL,582,2.06627,-0.059774
aVL,583,2.06982,-0.057843
aVL,584,2.07337,-0.055825
aVL,585,2.07692,-0.054968
aVL,586,2.08047,-0.05468
aVL,587,2.08402,-0.054335
aVL,588,2.08757,-0.053024
aVL,589,2.09112,-0.051003
aVL,590,2.09467,-0.049323
aVL,591,2.09822,-0.048568
aVL,592,2.10178,-0.048325
aVL,593,2.10533,-0.047538
aVL,594,2.10888,-0.045776
aVL,595,2.11243,-0.043781
aVL,596,2.11598,-0.042177
aVL,597,2.11953,-0.041773
aVL,598,2.12308,-0.041458
aVL,599,2.12663,-0.039276
aVL,600,2.13018,-0.039347
aVL,601,2.13373,-0.043128
aVL,602,2.13728,-0.045319
aVL,603,2.14083,-0.041808
aVL,604,2.14438,-0.033985
aVL,605,2.14793,-0.032394
aVL,606,2.15148,-0.037266
aVL,607,2.15503,-0.03751
aVL,608,2.15858,-0.035345
aVL,609,2.16213,-0.035081
aVL,610,2.16568,-0.03387
aVL,611,2.16923,-0.031562
aVL,612,2.17278,-0.029645
aVL,613,2.17633,-0.027987
aVL,614,2.17988,-0.026914
aVL,615,2.18343,-0.026968
aVL,616,2.18698,-0.023108
aVL,617,2.19053,-0.016066
aVL,618,2.19408,-0.013829
aVL,619,2.19763,-0.013986
aVL,620,2.20118,-0.016693
aVL,621,2.20473,-0.022818
aVL,622,2.20828,-0.024438
aVL,623,2.21183,-0.023483
aVL,624,2.21538,-0.021584
aVL,625,2.21893,-0.016178
aVL,626,2.22249,-0.013451
aVL,627,2.22604,-0.016525
aVL,628,2.22959,-0.021535
aVL,629,2.23314,-0.024111
aVL,630,2.23669,-0.021173
aVL,631,2.24024,-0.015791
aVL,632,2.24379,-0.013901
aVL,633,2.24734,-0.01456
aVL,634,2.25089,-0.01398
aVL,635,2.25444,-0.012501
aVL,636,2.25799,-0.015158
aVL,637,2.26154,-0.021749
aVL,638,2.26509,-0.02396
aVL,639,2.26864,-0.022385
aVL,640,2.27219,-0.022079
aVL,641,2.27574,-0.022179
aVL,642,2.27929,-0.022448
aVL,643,2.28284,-0.022883
aVL,644,2.28639,-0.022673
aVL,645,2.28994,-0.022115
aVL,646,2.29349,-0.021768
aVL,647,2.29704,-0.02193
aVL,648,2.30059,-0.022376
aVL,649,2.30414,-0.02254
aVL,650,2.30769,-0.022193
aVL,651,2.31124,-0.021679
aVL,652,2.31479,-0.021515
aVL,653,2.31834,-0.021826
aVL,654,2.32189,-0.022206
aVL,655,2.32544,-0.022182
aVL,656,2.32899,-0.021739
aVL,657,2.33254,-0.021327
aVL,658,2.33609,-0.021356
aVL,659,2.33964,-0.02174
aVL,660,2.3432,-0.022001
aVL,661,2.34675,-0.021808
aVL,662,2.3503,-0.021338
aVL,663,2.35385,-0.021077
aVL,664,2.3574,-0.021271
aVL,665,2.36095,-0.021659
aVL,666,2.3645,-0.021769
aVL,667,2.36805,-0.021445
aVL,668,2.3716,-0.021017
aVL,669,2.37515,-0.02093
aVL,670,2.3787,-0.021242
aVL,671,2.38225,-0.021573
aVL,672,2.3858,-0.021525
aVL,673,2.38935,-0.021115
aVL,674,2.3929,-0.020804
aVL,675,2.39645,-0.020877
aVF,0,0.0,-0.017599
aVF,1,0.00355,-0.03165
aVF,2,0.0071,-0.108357
aVF,3,0.01065,-0.140989
aVF,4,0.0142,-0.100428
aVF,5,0.01775,-0.046667
aVF,6,0.0213,-0.024982
aVF,7,0.02485,-0.025643
aVF,8,0.0284,-0.016563
aVF,9,0.03195,-0.008645
aVF,10,0.0355,-0.007092
aVF,11,0.03905,-0.004409
aVF,12,0.0426,4.2e-05
aVF,13,0.04615,0.007724
aVF,14,0.0497,0.015703
aVF,15,0.05325,0.020298
aVF,16,0.0568,0.022009
aVF,17,0.06036,0.024367
aVF,18,0.06391,0.030275
aVF,19,0.06746,0.038593
aVF,20,0.07101,0.045302
aVF,21,0.07456,0.048114
aVF,22,0.07811,0.049096
aVF,23,0.08166,0.052417
aVF,24,0.08521,0.059687
aVF,25,0.08876,0.067852
aVF,26,0.09231,0.07284
aVF,27,0.09586,0.07412
aVF,28,0.09941,0.074716
aVF,29,0.10296,0.077274
aVF,30,0.10651,0.081312
aVF,31,0.11006,0.087488
aVF,32,0.11361,0.097317
aVF,33,0.11716,0.108002
aVF,34,0.12071,0.116801
aVF,35,0.12426,0.125128
aVF,36,0.12781,0.132088
aVF,37,0.13136,0.131771
aVF,38,0.13491,0.124895
aVF,39,0.13846,0.118093
aVF,40,0.14201,0.112679
aVF,41,0.14556,0.115728
aVF,42,0.14911,0.131317
aVF,43,0.15266,0.142764
aVF,44,0.15621,0.145096
aVF,45,0.15976,0.149806
aVF,46,0.16331,0.158692
aVF,47,0.16686,0.16545
aVF,48,0.17041,0.162747
aVF,49,0.17396,0.158822
aVF,50,0.17751,0.159726
aVF,51,0.18107,0.157805
aVF,52,0.18462,0.161518
aVF,53,0.18817,0.172132
aVF,54,0.19172,0.175592
aVF,55,0.19527,0.176052
aVF,56,0.19882,0.180505
aVF,57,0.20237,0.185967
aVF,58,0.20592,0.193826
aVF,59,0.20947,0.202218
aVF,60,0.21302,0.204065
aVF,61,0.21657,0.200744
aVF,62,0.22012,0.199828
aVF,63,0.22367,0.205778
aVF,64,0.22722,0.215616
aVF,65,0.23077,0.221756
aVF,66,0.23432,0.220539
aVF,67,0.23787,0.216275
aVF,68,0.24142,0.217723
aVF,69,0.24497,0.228074
aVF,70,0.24852,0.240145
aVF,71,0.25207,0.245644
aVF,72,0.25562,0.243493
aVF,73,0.25917,0.240172
aVF,74,0.26272,0.243956
aVF,75,0.26627,0.254497
aVF,76,0.26982,0.26269
aVF,77,0.27337,0.262238
aVF,78,0.27692,0.25627
aVF,79,0.28047,0.254195
aVF,80,0.28402,0.261975
aVF,81,0.28757,0.27263
aVF,82,0.29112,0.274224
aVF,83,0.29467,0.265288
aVF,84,0.29822,0.253929
aVF,85,0.30178,0.251336
aVF,86,0.30533,0.261198
aVF,87,0.30888,0.272208
aVF,88,0.31243,0.27375
aVF,89,0.31598,0.26808
aVF,90,0.31953,0.264938
aVF,91,0.32308,0.272495
aVF,92,0.32663,0.287051
aVF,93,0.33018,0.29627
aVF,94,0.33373,0.292041
aVF,95,0.33728,0.278386
aVF,96,0.34083,0.271505
aVF,97,0.34438,0.280552
aVF,98,0.34793,0.294713
aVF,99,0.35148,0.2993
aVF,100,0.35503,0.291707
aVF,101,0.35858,0.282512
aVF,102,0.36213,0.284804
aVF,103,0.36568,0.299079
aVF,104,0.36923,0.311995
aVF,105,0.37278,0.311218
aVF,106,0.37633,0.299772
aVF,107,0.37988,0.292594
aVF,108,0.38343,0.300348
aVF,109,0.38698,0.318025
aVF,110,0.39053,0.325968
aVF,111,0.39408,0.319834
aVF,112,0.39763,0.308262
aVF,113,0.40118,0.296862
aVF,114,0.40473,0.327899
aVF,115,0.40828,0.327948
aVF,116,0.41183,0.316507
aVF,117,0.41538,0.401471
aVF,118,0.41893,0.163854
aVF,119,0.42249,-0.440594
aVF,120,0.42604,-0.702347
aVF,121,0.42959,-0.326742
aVF,122,0.43314,0.209098
aVF,123,0.43669,0.374682
aVF,124,0.44024,0.378774
aVF,125,0.44379,0.183074
aVF,126,0.44734,-0.37642
aVF,127,0.45089,-0.671902
aVF,128,0.45444,-0.323583
aVF,129,0.45799,0.19942
aVF,130,0.46154,0.358745
aVF,131,0.46509,0.393909
aVF,132,0.46864,0.190865
aVF,133,0.47219,-0.351012
aVF,134,0.47574,-0.400922
aVF,135,0.47929,-0.073069
aVF,136,0.48284,0.124347
aVF,137,0.48639,0.293007
aVF,138,0.48994,0.383809
aVF,139,0.49349,0.340302
aVF,140,0.49704,0.336096
aVF,141,0.50059,0.425599
aVF,142,0.50414,0.149625
aVF,143,0.50769,-0.211492
aVF,144,0.51124,0.153267
aVF,145,0.51479,0.54967
aVF,146,0.51834,0.174607
aVF,147,0.52189,-0.21621
aVF,148,0.52544,0.13107
aVF,149,0.52899,0.528264
aVF,150,0.53254,0.116342
aVF,151,0.53609,-0.311591
aVF,152,0.53964,0.109473
aVF,153,0.5432,0.528518
aVF,154,0.54675,0.154497
aVF,155,0.5503,-0.425886
aVF,156,0.55385,-0.573252
aVF,157,0.5574,-0.520305
aVF,158,0.56095,-0.304443
aVF,159,0.5645,0.186574
aVF,160,0.56805,0.471397
aVF,161,0.5716,0.19755
aVF,162,0.57515,-0.285448
aVF,163,0.5787,-0.426539
aVF,164,0.58225,-0.470377
aVF,165,0.5858,-0.343413
aVF,166,0.58935,0.258076
aVF,167,0.5929,0.29723
aVF,168,0.59645,-0.304566
aVF,169,0.6,-0.47464
aVF,170,0.60355,-0.395925
aVF,171,0.6071,-0.438429
aVF,172,0.61065,-0.452753
aVF,173,0.6142,-0.410978
aVF,174,0.61775,-0.383697
aVF,175,0.6213,-0.482026
aVF,176,0.62485,-0.318022
aVF,177,0.6284,0.202896
aVF,178,0.63195,0.399857
aVF,179,0.6355,0.323408
aVF,180,0.63905,0.347414
aVF,181,0.6426,0.349245
aVF,182,0.64615,0.323579
aVF,183,0.6497,0.359579
aVF,184,0.65325,0.369593
aVF,185,0.6568,0.349699
aVF,186,0.66036,0.425524
aVF,187,0.66391,0.229127
aVF,188,0.66746,-0.34982
aVF,189,0.67101,-0.478478
aVF,190,0.67456,-0.02496
aVF,191,0.67811,0.299993
aVF,192,0.68166,0.324779
aVF,193,0.68521,0.297827
aVF,194,0.68876,0.308518
aVF,195,0.69231,0.317437
aVF,196,0.69586,0.317007
aVF,197,0.69941,0.311624
aVF,198,0.70296,0.301757
aVF,199,0.70651,0.299565
aVF,200,0.71006,0.305529
aVF,201,0.71361,0.311368
aVF,202,0.71716,0.309831
aVF,203,0.72071,0.301485
aVF,204,0.72426,0.294584
aVF,205,0.72781,0.295404
aVF,206,0.73136,0.301429
aVF,207,0.73491,0.304575
aVF,208,0.73846,0.30015
aVF,209,0.74201,0.291947
aVF,210,0.74556,0.287861
aVF,211,0.74911,0.29055
aVF,212,0.75266,0.295728
aVF,213,0.75621,0.296152
aVF,214,0.75976,0.288928
aVF,215,0.76331,0.28412
aVF,216,0.76686,0.288697
aVF,217,0.77041,0.294635
aVF,218,0.77396,0.296813
aVF,219,0.77751,0.294657
aVF,220,0.78107,0.288015
aVF,221,0.78462,0.282711
aVF,222,0.78817,0.283233
aVF,223,0.79172,0.286864
aVF,224,0.79527,0.287889
aVF,225,0.79882,0.283658
aVF,226,0.80237,0.277243
aVF,227,0.80592,0.274012
aVF,228,0.80947,0.276
aVF,229,0.81302,0.278173
aVF,230,0.81657,0.275295
aVF,231,0.82012,0.267869
aVF,232,0.82367,0.259165
aVF,233,0.82722,0.257882
aVF,234,0.83077,0.266175
aVF,235,0.83432,0.271595
aVF,236,0.83787,0.270007
aVF,237,0.84142,0.267034
aVF,238,0.84497,0.264954
aVF,239,0.84852,0.265625
aVF,240,0.85207,0.266367
aVF,241,0.85562,0.26244
aVF,242,0.85917,0.253721
aVF,243,0.86272,0.242935
aVF,244,0.86627,0.239073
aVF,245,0.86982,0.244139
aVF,246,0.87337,0.24982
aVF,247,0.87692,0.252832
aVF,248,0.88047,0.250548
aVF,249,0.88402,0.245398
aVF,250,0.88757,0.244128
aVF,251,0.89112,0.245165
aVF,252,0.89467,0.244753
aVF,253,0.89822,0.241674
aVF,254,0.90178,0.237003
aVF,255,0.90533,0.233739
aVF,256,0.90888,0.233278
aVF,257,0.91243,0.23382
aVF,258,0.91598,0.232029
aVF,259,0.91953,0.228703
aVF,260,0.92308,0.224125
aVF,261,0.92663,0.21657
aVF,262,0.93018,0.214757
aVF,263,0.93373,0.219584
aVF,264,0.93728,0.216634
aVF,265,0.94083,0.207329
aVF,266,0.94438,0.200663
aVF,267,0.94793,0.195513
aVF,268,0.95148,0.192112
aVF,269,0.95503,0.190543
aVF,270,0.95858,0.187561
aVF,271,0.96213,0.183456
aVF,272,0.96568,0.180445
aVF,273,0.96923,0.179654
aVF,274,0.97278,0.17933
aVF,275,0.97633,0.176221
aVF,276,0.97988,0.174857
aVF,277,0.98343,0.177083
aVF,278,0.98698,0.175802
aVF,279,0.99053,0.17239
aVF,280,0.99408,0.16992
aVF,281,0.99763,0.16603
aVF,282,1.00118,0.160698
aVF,283,1.00473,0.15528
aVF,284,1.00828,0.155509
aVF,285,1.01183,0.160886
aVF,286,1.01538,0.16126
aVF,287,1.01893,0.157
aVF,288,1.02249,0.153629
aVF,289,1.02604,0.151084
aVF,290,1.02959,0.149521
aVF,291,1.03314,0.148343
aVF,292,1.03669,0.146
aVF,293,1.04024,0.14254
aVF,294,1.04379,0.139243
aVF,295,1.04734,0.137144
aVF,296,1.05089,0.135458
aVF,297,1.05444,0.134309
aVF,298,1.05799,0.131196
aVF,299,1.06154,0.122504
aVF,300,1.06509,0.117555
aVF,301,1.06864,0.121315
aVF,302,1.07219,0.122429
aVF,303,1.07574,0.119044
aVF,304,1.07929,0.11618
aVF,305,1.08284,0.113009
aVF,306,1.08639,0.110263
aVF,307,1.08994,0.108684
aVF,308,1.09349,0.106954
aVF,309,1.09704,0.104392
aVF,310,1.10059,0.10112
aVF,311,1.10414,0.098026
aVF,312,1.10769,0.095827
aVF,313,1.11124,0.094184
aVF,314,1.11479,0.092158
aVF,315,1.11834,0.089261
aVF,316,1.12189,0.085968
aVF,317,1.12544,0.083205
aVF,318,1.12899,0.081269
aVF,319,1.13254,0.079494
aVF,320,1.13609,0.077178
aVF,321,1.13964,0.073984
aVF,322,1.1432,0.070802
aVF,323,1.14675,0.06871
aVF,324,1.1503,0.066081
aVF,325,1.15385,0.065206
aVF,326,1.1574,0.070807
aVF,327,1.16095,0.076092
aVF,328,1.1645,0.074052
aVF,329,1.16805,0.069798
aVF,330,1.1716,0.066696
aVF,331,1.17515,0.062999
aVF,332,1.1787,0.058582
aVF,333,1.18225,0.053919
aVF,334,1.1858,0.050005
aVF,335,1.18935,0.047724
aVF,336,1.1929,0.046013
aVF,337,1.19645,0.043331
aVF,338,1.2,0.039399
aVF,339,1.20355,0.035253
aVF,340,1.2071,0.031766
aVF,341,1.21065,0.028677
aVF,342,1.2142,0.025445
aVF,343,1.21775,0.021733
aVF,344,1.2213,0.017538
aVF,345,1.22485,0.01384
aVF,346,1.2284,0.011447
aVF,347,1.23195,0.009529
aVF,348,1.2355,0.007266
aVF,349,1.23905,0.004498
aVF,350,1.2426,0.001497
aVF,351,1.24615,-0.000726
aVF,352,1.2497,-0.003429
aVF,353,1.25325,-0.007192
aVF,354,1.2568,-0.011621
aVF,355,1.26036,-0.0183
aVF,356,1.26391,-0.019927
aVF,357,1.26746,-0.017306
aVF,358,1.27101,-0.026156
aVF,359,1.27456,-0.036431
aVF,360,1.27811,-0.032296
aVF,361,1.28166,-0.024439
aVF,362,1.28521,-0.018733
aVF,363,1.28876,-0.012273
aVF,364,1.29231,-0.005193
aVF,365,1.29586,0.001883
aVF,366,1.29941,-0.002483
aVF,367,1.30296,-0.020816
aVF,368,1.30651,-0.032627
aVF,369,1.31006,-0.03584
aVF,370,1.31361,-0.045849
aVF,371,1.31716,-0.05697
aVF,372,1.32071,-0.060408
aVF,373,1.32426,-0.062186
aVF,374,1.32781,-0.064658
aVF,375,1.33136,-0.066819
aVF,376,1.33491,-0.069227
aVF,377,1.33846,-0.070535
aVF,378,1.34201,-0.075318
aVF,379,1.34556,-0.083745
aVF,380,1.34911,-0.087821
aVF,381,1.35266,-0.089912
aVF,382,1.35621,-0.090224
aVF,383,1.35976,-0.086547
aVF,384,1.36331,-0.086633
aVF,385,1.36686,-0.090034
aVF,386,1.37041,-0.091837
aVF,387,1.37396,-0.093893
aVF,388,1.37751,-0.096118
aVF,389,1.38107,-0.098471
aVF,390,1.38462,-0.101023
aVF,391,1.38817,-0.102125
aVF,392,1.39172,-0.106357
aVF,393,1.39527,-0.114523
aVF,394,1.39882,-0.119008
aVF,395,1.40237,-0.120051
aVF,396,1.40592,-0.122257
aVF,397,1.40947,-0.125554
aVF,398,1.41302,-0.125255
aVF,399,1.41657,-0.121186
aVF,400,1.42012,-0.121087
aVF,401,1.42367,-0.124291
aVF,402,1.42722,-0.126216
aVF,403,1.43077,-0.128153
aVF,404,1.43432,-0.130243
aVF,405,1.43787,-0.132175
aVF,406,1.44142,-0.134057
aVF,407,1.44497,-0.136181
aVF,408,1.44852,-0.138668
aVF,409,1.45207,-0.139495
aVF,410,1.45562,-0.143264
aVF,411,1.45917,-0.152316
aVF,412,1.46272,-0.154323
aVF,413,1.46627,-0.148967
aVF,414,1.46982,-0.149241
aVF,415,1.47337,-0.152471
aVF,416,1.47692,-0.152899
aVF,417,1.48047,-0.156648
aVF,418,1.48402,-0.164618
aVF,419,1.48757,-0.169765
aVF,420,1.49112,-0.168521
aVF,421,1.49467,-0.164321
aVF,422,1.49822,-0.163892
aVF,423,1.50178,-0.166505
aVF,424,1.50533,-0.168241
aVF,425,1.50888,-0.170045
aVF,426,1.51243,-0.171997
aVF,427,1.51598,-0.173487
aVF,428,1.51953,-0.17503
aVF,429,1.52308,-0.176738
aVF,430,1.52663,-0.178611
aVF,431,1.53018,-0.180458
aVF,432,1.53373,-0.182047
aVF,433,1.53728,-0.183448
aVF,434,1.54083,-0.18493
aVF,435,1.54438,-0.18666
aVF,436,1.54793,-0.188505
aVF,437,1.55148,-0.190171
aVF,438,1.55503,-0.19154
aVF,439,1.55858,-0.192817
aVF,440,1.56213,-0.194308
aVF,441,1.56568,-0.196061
aVF,442,1.56923,-0.197803
aVF,443,1.57278,-0.19924
aVF,444,1.57633,-0.2004
aVF,445,1.57988,-0.201615
aVF,446,1.58343,-0.203151
aVF,447,1.58698,-0.20489
aVF,448,1.59053,-0.206455
aVF,449,1.59408,-0.207631
aVF,450,1.59763,-0.208625
aVF,451,1.60118,-0.209844
aVF,452,1.60473,-0.211433
aVF,453,1.60828,-0.213093
aVF,454,1.61183,-0.214409
aVF,455,1.61538,-0.215325
aVF,456,1.61893,-0.216215
aVF,457,1.62249,-0.217505
aVF,458,1.62604,-0.219114
aVF,459,1.62959,-0.220593
aVF,460,1.63314,-0.22168
aVF,461,1.63669,-0.222224
aVF,462,1.64024,-0.223246
aVF,463,1.64379,-0.224738
aVF,464,1.64734,-0.225487
aVF,465,1.65089,-0.228611
aVF,466,1.65444,-0.235406
aVF,467,1.65799,-0.239328
aVF,468,1.66154,-0.236111
aVF,469,1.66509,-0.233639
aVF,470,1.66864,-0.238998
aVF,471,1.67219,-0.244043
aVF,472,1.67574,-0.241197
aVF,473,1.67929,-0.235433
aVF,474,1.68284,-0.234567
aVF,475,1.68639,-0.237238
aVF,476,1.68994,-0.23718
aVF,477,1.69349,-0.239579
aVF,478,1.69704,-0.247257
aVF,479,1.70059,-0.24745
aVF,480,1.70414,-0.241421
aVF,481,1.70769,-0.241044
aVF,482,1.71124,-0.242341
aVF,483,1.71479,-0.244308
aVF,484,1.71834,-0.250245
aVF,485,1.72189,-0.254047
aVF,486,1.72544,-0.251843
aVF,487,1.72899,-0.247203
aVF,488,1.73254,-0.245865
aVF,489,1.73609,-0.246873
aVF,490,1.73964,-0.246502
aVF,491,1.7432,-0.247004
aVF,492,1.74675,-0.248425
aVF,493,1.7503,-0.248505
aVF,494,1.75385,-0.250945
aVF,495,1.7574,-0.256696
aVF,496,1.76095,-0.259802
aVF,497,1.7645,-0.257159
aVF,498,1.76805,-0.252294
aVF,499,1.7716,-0.25094
aVF,500,1.77515,-0.252104
aVF,501,1.7787,-0.251425
aVF,502,1.78225,-0.250944
aVF,503,1.7858,-0.252959
aVF,504,1.78935,-0.251209
aVF,505,1.7929,-0.246072
aVF,506,1.79645,-0.247862
aVF,507,1.8,-0.252614
aVF,508,1.80355,-0.252895
aVF,509,1.8071,-0.252947
aVF,510,1.81065,-0.253986
aVF,511,1.8142,-0.254029
aVF,512,1.81775,-0.253552
aVF,513,1.8213,-0.253058
aVF,514,1.82485,-0.253032
aVF,515,1.8284,-0.253569
aVF,516,1.83195,-0.254009
aVF,517,1.8355,-0.25386
aVF,518,1.83905,-0.253193
aVF,519,1.8426,-0.252595
aVF,520,1.84615,-0.252709
aVF,521,1.8497,-0.252965
aVF,522,1.85325,-0.253232
aVF,523,1.8568,-0.253107
aVF,524,1.86036,-0.251061
aVF,525,1.86391,-0.252657
aVF,526,1.86746,-0.259249
aVF,527,1.87101,-0.260529
aVF,528,1.87456,-0.261215
aVF,529,1.87811,-0.268048
aVF,530,1.88166,-0.267143
aVF,531,1.88521,-0.258855
aVF,532,1.88876,-0.257873
aVF,533,1.89231,-0.257786
aVF,534,1.89586,-0.249433
aVF,535,1.89941,-0.238832
aVF,536,1.90296,-0.228798
aVF,537,1.90651,-0.219788
aVF,538,1.91006,-0.210794
aVF,539,1.91361,-0.200241
aVF,540,1.91716,-0.203886
aVF,541,1.92071,-0.223246
aVF,542,1.92426,-0.235522
aVF,543,1.92781,-0.242235
aVF,544,1.93136,-0.25024
aVF,545,1.93491,-0.251517
aVF,546,1.93846,-0.249249
aVF,547,1.94201,-0.248187
aVF,548,1.94556,-0.246935
aVF,549,1.94911,-0.246313
aVF,550,1.95266,-0.246193
aVF,551,1.95621,-0.245453
aVF,552,1.95976,-0.244035
aVF,553,1.96331,-0.242396
aVF,554,1.96686,-0.241112
aVF,555,1.97041,-0.240782
aVF,556,1.97396,-0.240228
aVF,557,1.97751,-0.23892
aVF,558,1.98107,-0.238332
aVF,559,1.98462,-0.234247
aVF,560,1.98817,-0.227088
aVF,561,1.99172,-0.22452
aVF,562,1.99527,-0.224012
aVF,563,1.99882,-0.224385
aVF,564,2.00237,-0.228182
aVF,565,2.00592,-0.229854
aVF,566,2.00947,-0.225288
aVF,567,2.01302,-0.218836
aVF,568,2.01657,-0.216052
aVF,569,2.02012,-0.214122
aVF,570,2.02367,-0.213861
aVF,571,2.02722,-0.218237
aVF,572,2.03077,-0.219371
aVF,573,2.03432,-0.217165
aVF,574,2.03787,-0.217132
aVF,575,2.04142,-0.213065
aVF,576,2.04497,-0.20422
aVF,577,2.04852,-0.200519
aVF,578,2.05207,-0.200634
aVF,579,2.05562,-0.198442
aVF,580,2.05917,-0.198645
aVF,581,2.06272,-0.202403
aVF,582,2.06627,-0.202937
aVF,583,2.06982,-0.198197
aVF,584,2.07337,-0.191199
aVF,585,2.07692,-0.186923
aVF,586,2.08047,-0.18805
aVF,587,2.08402,-0.190493
aVF,588,2.08757,-0.192081
aVF,589,2.09112,-0.195412
aVF,590,2.09467,-0.19756
aVF,591,2.09822,-0.192825
aVF,592,2.10178,-0.184258
aVF,593,2.10533,-0.179441
aVF,594,2.10888,-0.177789
aVF,595,2.11243,-0.176141
aVF,596,2.11598,-0.174471
aVF,597,2.11953,-0.172366
aVF,598,2.12308,-0.170516
aVF,599,2.12663,-0.16533
aVF,600,2.13018,-0.156773
aVF,601,2.13373,-0.153
aVF,602,2.13728,-0.152342
aVF,603,2.14083,-0.149816
aVF,604,2.14438,-0.146399
aVF,605,2.14793,-0.143151
aVF,606,2.15148,-0.141905
aVF,607,2.15503,-0.138158
aVF,608,2.15858,-0.129716
aVF,609,2.16213,-0.1254
aVF,610,2.16568,-0.127593
aVF,611,2.16923,-0.132335
aVF,612,2.17278,-0.132745
aVF,613,2.17633,-0.125848
aVF,614,2.17988,-0.12073
aVF,615,2.18343,-0.118579
aVF,616,2.18698,-0.114719
aVF,617,2.19053,-0.111575
aVF,618,2.19408,-0.109726
aVF,619,2.19763,-0.107592
aVF,620,2.20118,-0.1047
aVF,621,2.20473,-0.100933
aVF,622,2.20828,-0.097234
aVF,623,2.21183,-0.094503
aVF,624,2.21538,-0.092428
aVF,625,2.21893,-0.089977
aVF,626,2.22249,-0.086605
aVF,627,2.22604,-0.082391
aVF,628,2.22959,-0.078926
aVF,629,2.23314,-0.076592
aVF,630,2.23669,-0.07334
aVF,631,2.24024,-0.072485
aVF,632,2.24379,-0.074868
aVF,633,2.24734,-0.072711
aVF,634,2.25089,-0.068011
aVF,635,2.25444,-0.066847
aVF,636,2.25799,-0.062312
aVF,637,2.26154,-0.052487
aVF,638,2.26509,-0.046054
aVF,639,2.26864,-0.042909
aVF,640,2.27219,-0.039496
aVF,641,2.27574,-0.036908
aVF,642,2.27929,-0.034136
aVF,643,2.28284,-0.029989
aVF,644,2.28639,-0.025373
aVF,645,2.28994,-0.021331
aVF,646,2.29349,-0.018361
aVF,647,2.29704,-0.015734
aVF,648,2.30059,-0.012261
aVF,649,2.30414,-0.007653
aVF,650,2.30769,-0.002904
aVF,651,2.31124,0.000877
aVF,652,2.31479,0.003795
aVF,653,2.31834,0.006559
aVF,654,2.32189,0.010846
aVF,655,2.32544,0.016035
aVF,656,2.32899,0.019645
aVF,657,2.33254,0.025631
aVF,658,2.33609,0.033849
aVF,659,2.33964,0.034946
aVF,660,2.3432,0.030324
aVF,661,2.34675,0.033328
aVF,662,2.3503,0.043475
aVF,663,2.35385,0.048018
aVF,664,2.3574,0.052567
aVF,665,2.36095,0.062159
aVF,666,2.3645,0.066069
aVF,667,2.36805,0.065508
aVF,668,2.3716,0.064902
aVF,669,2.37515,0.065436
aVF,670,2.3787,0.070581
aVF,671,2.38225,0.076851
aVF,672,2.3858,0.080663
aVF,673,2.38935,0.081719
aVF,674,2.3929,0.080327
aVF,675,2.39645,0.078567
V1,0,0.0,0.121985
V1,1,0.00355,0.21639
V1,2,0.0071,0.439083
V1,3,0.01065,0.239261
V1,4,0.0142,0.055095
V1,5,0.01775,0.127847
V1,6,0.0213,0.103442
V1,7,0.02485,0.084858
V1,8,0.0284,0.122343
V1,9,0.03195,0.140219
V1,10,0.0355,0.152487
V1,11,0.03905,0.148847
V1,12,0.0426,0.140579
V1,13,0.04615,0.144486
V1,14,0.0497,0.15231
V1,15,0.05325,0.158477
V1,16,0.0568,0.156288
V1,17,0.06036,0.14382
V1,18,0.06391,0.13617
V1,19,0.06746,0.141943
V1,20,0.07101,0.1535
V1,21,0.07456,0.158062
V1,22,0.07811,0.149778
V1,23,0.08166,0.139002
V1,24,0.08521,0.137079
V1,25,0.08876,0.144161
V1,26,0.09231,0.16696
V1,27,0.09586,0.204701
V1,28,0.09941,0.243554
V1,29,0.10296,0.286589
V1,30,0.10651,0.333496
V1,31,0.11006,0.363983
V1,32,0.11361,0.373332
V1,33,0.11716,0.360352
V1,34,0.12071,0.270915
V1,35,0.12426,0.098632
V1,36,0.12781,-0.055216
V1,37,0.13136,-0.154127
V1,38,0.13491,-0.223837
V1,39,0.13846,-0.253242
V1,40,0.14201,-0.221498
V1,41,0.14556,-0.120159
V1,42,0.14911,0.006067
V1,43,0.15266,0.098303
V1,44,0.15621,0.143525
V1,45,0.15976,0.151883
V1,46,0.16331,0.150773
V1,47,0.16686,0.162261
V1,48,0.17041,0.176422
V1,49,0.17396,0.175302
V1,50,0.17751,0.16032
V1,51,0.18107,0.14284
V1,52,0.18462,0.1371
V1,53,0.18817,0.151308
V1,54,0.19172,0.171384
V1,55,0.19527,0.179481
V1,56,0.19882,0.171238
V1,57,0.20237,0.159502
V1,58,0.20592,0.160376
V1,59,0.20947,0.173376
V1,60,0.21302,0.186436
V1,61,0.21657,0.182525
V1,62,0.22012,0.166329
V1,63,0.22367,0.164422
V1,64,0.22722,0.178361
V1,65,0.23077,0.19258
V1,66,0.23432,0.198475
V1,67,0.23787,0.195709
V1,68,0.24142,0.194532
V1,69,0.24497,0.196442
V1,70,0.24852,0.199707
V1,71,0.25207,0.205363
V1,72,0.25562,0.20415
V1,73,0.25917,0.195243
V1,74,0.26272,0.18831
V1,75,0.26627,0.188915
V1,76,0.26982,0.195976
V1,77,0.27337,0.204806
V1,78,0.27692,0.21205
V1,79,0.28047,0.213641
V1,80,0.28402,0.211833
V1,81,0.28757,0.21255
V1,82,0.29112,0.215003
V1,83,0.29467,0.213452
V1,84,0.29822,0.204389
V1,85,0.30178,0.196192
V1,86,0.30533,0.199654
V1,87,0.30888,0.212631
V1,88,0.31243,0.218996
V1,89,0.31598,0.205301
V1,90,0.31953,0.185292
V1,91,0.32308,0.180308
V1,92,0.32663,0.188305
V1,93,0.33018,0.194246
V1,94,0.33373,0.18427
V1,95,0.33728,0.161918
V1,96,0.34083,0.145139
V1,97,0.34438,0.141175
V1,98,0.34793,0.151029
V1,99,0.35148,0.163977
V1,100,0.35503,0.158298
V1,101,0.35858,0.1399
V1,102,0.36213,0.127524
V1,103,0.36568,0.12229
V1,104,0.36923,0.125765
V1,105,0.37278,0.127982
V1,106,0.37633,0.11539
V1,107,0.37988,0.105384
V1,108,0.38343,0.112928
V1,109,0.38698,0.132574
V1,110,0.39053,0.157904
V1,111,0.39408,0.174875
V1,112,0.39763,0.16993
V1,113,0.40118,0.156649
V1,114,0.40473,0.159404
V1,115,0.40828,0.176006
V1,116,0.41183,0.188035
V1,117,0.41538,0.190782
V1,118,0.41893,0.18959
V1,119,0.42249,0.189613
V1,120,0.42604,0.200064
V1,121,0.42959,0.219415
V1,122,0.43314,0.223774
V1,123,0.43669,0.203268
V1,124,0.44024,0.182115
V1,125,0.44379,0.181787
V1,126,0.44734,0.196805
V1,127,0.45089,0.208423
V1,128,0.45444,0.203275
V1,129,0.45799,0.186108
V1,130,0.46154,0.175649
V1,131,0.46509,0.185021
V1,132,0.46864,0.205338
V1,133,0.47219,0.209977
V1,134,0.47574,0.190114
V1,135,0.47929,0.165191
V1,136,0.48284,0.155663
V1,137,0.48639,0.172658
V1,138,0.48994,0.204318
V1,139,0.49349,0.218026
V1,140,0.49704,0.206521
V1,141,0.50059,0.19112
V1,142,0.50414,0.190198
V1,143,0.50769,0.209715
V1,144,0.51124,0.224317
V1,145,0.51479,0.207239
V1,146,0.51834,0.173367
V1,147,0.52189,0.156428
V1,148,0.52544,0.172436
V1,149,0.52899,0.19104
V1,150,0.53254,0.219969
V1,151,0.53609,0.1974
V1,152,0.53964,0.122345
V1,153,0.5432,0.245963
V1,154,0.54675,0.055364
V1,155,0.5503,-0.718511
V1,156,0.55385,-0.721538
V1,157,0.5574,0.041528
V1,158,0.56095,0.226681
V1,159,0.5645,0.107171
V1,160,0.56805,0.182422
V1,161,0.5716,0.205428
V1,162,0.57515,0.177362
V1,163,0.5787,0.151963
V1,164,0.58225,0.127936
V1,165,0.5858,0.148242
V1,166,0.58935,0.190105
V1,167,0.5929,0.209934
V1,168,0.59645,0.197759
V1,169,0.6,0.171709
V1,170,0.60355,0.158323
V1,171,0.6071,0.172295
V1,172,0.61065,0.190663
V1,173,0.6142,0.182823
V1,174,0.61775,0.157088
V1,175,0.6213,0.138307
V1,176,0.62485,0.14496
V1,177,0.6284,0.17558
V1,178,0.63195,0.19731
V1,179,0.6355,0.187941
V1,180,0.63905,0.162618
V1,181,0.6426,0.145452
V1,182,0.64615,0.14698
V1,183,0.6497,0.161142
V1,184,0.65325,0.163147
V1,185,0.6568,0.13811
V1,186,0.66036,0.11281
V1,187,0.66391,0.104538
V1,188,0.66746,0.100929
V1,189,0.67101,0.103357
V1,190,0.67456,0.101853
V1,191,0.67811,0.080704
V1,192,0.68166,0.070649
V1,193,0.68521,0.098214
V1,194,0.68876,0.135563
V1,195,0.69231,0.153204
V1,196,0.69586,0.151538
V1,197,0.69941,0.14343
V1,198,0.70296,0.14332
V1,199,0.70651,0.155032
V1,200,0.71006,0.16914
V1,201,0.71361,0.172619
V1,202,0.71716,0.157677
V1,203,0.72071,0.13388
V1,204,0.72426,0.124748
V1,205,0.72781,0.135952
V1,206,0.73136,0.14958
V1,207,0.73491,0.152804
V1,208,0.73846,0.147677
V1,209,0.74201,0.144296
V1,210,0.74556,0.149596
V1,211,0.74911,0.162248
V1,212,0.75266,0.179182
V1,213,0.75621,0.195402
V1,214,0.75976,0.225433
V1,215,0.76331,0.285688
V1,216,0.76686,0.343823
V1,217,0.77041,0.384764
V1,218,0.77396,0.408349
V1,219,0.77751,0.370231
V1,220,0.78107,0.299229
V1,221,0.78462,0.211197
V1,222,0.78817,0.020882
V1,223,0.79172,-0.168849
V1,224,0.79527,-0.241517
V1,225,0.79882,-0.279971
V1,226,0.80237,-0.242852
V1,227,0.80592,-0.108173
V1,228,0.80947,0.005865
V1,229,0.81302,0.083325
V1,230,0.81657,0.13368
V1,231,0.82012,0.145753
V1,232,0.82367,0.143373
V1,233,0.82722,0.138424
V1,234,0.83077,0.13197
V1,235,0.83432,0.131254
V1,236,0.83787,0.12934
V1,237,0.84142,0.12099
V1,238,0.84497,0.120373
V1,239,0.84852,0.126539
V1,240,0.85207,0.126697
V1,241,0.85562,0.119917
V1,242,0.85917,0.111853
V1,243,0.86272,0.113193
V1,244,0.86627,0.124387
V1,245,0.86982,0.13316
V1,246,0.87337,0.134954
V1,247,0.87692,0.129102
V1,248,0.88047,0.118485
V1,249,0.88402,0.117348
V1,250,0.88757,0.128554
V1,251,0.89112,0.136844
V1,252,0.89467,0.135356
V1,253,0.89822,0.126735
V1,254,0.90178,0.120261
V1,255,0.90533,0.128476
V1,256,0.90888,0.142709
V1,257,0.91243,0.147472
V1,258,0.91598,0.14397
V1,259,0.91953,0.13383
V1,260,0.92308,0.122471
V1,261,0.92663,0.122527
V1,262,0.93018,0.129763
V1,263,0.93373,0.129939
V1,264,0.93728,0.124733
V1,265,0.94083,0.126384
V1,266,0.94438,0.131153
V1,267,0.94793,0.127978
V1,268,0.95148,0.123156
V1,269,0.95503,0.121138
V1,270,0.95858,0.114824
V1,271,0.96213,0.108062
V1,272,0.96568,0.109392
V1,273,0.96923,0.111832
V1,274,0.97278,0.108173
V1,275,0.97633,0.102374
V1,276,0.97988,0.095893
V1,277,0.98343,0.092613
V1,278,0.98698,0.093476
V1,279,0.99053,0.089287
V1,280,0.99408,0.08188
V1,281,0.99763,0.074226
V1,282,1.00118,0.061011
V1,283,1.00473,0.049352
V1,284,1.00828,0.044404
V1,285,1.01183,0.037324
V1,286,1.01538,0.028916
V1,287,1.01893,0.020106
V1,288,1.02249,0.007252
V1,289,1.02604,0.001287
V1,290,1.02959,-0.001281
V1,291,1.03314,-0.009954
V1,292,1.03669,-0.011235
V1,293,1.04024,-0.004508
V1,294,1.04379,-0.000521
V1,295,1.04734,0.001652
V1,296,1.05089,0.005551
V1,297,1.05444,0.012457
V1,298,1.05799,0.018402
V1,299,1.06154,0.019395
V1,300,1.06509,0.021641
V1,301,1.06864,0.029625
V1,302,1.07219,0.034264
V1,303,1.07574,0.030253
V1,304,1.07929,0.026141
V1,305,1.08284,0.030795
V1,306,1.08639,0.0396
V1,307,1.08994,0.042652
V1,308,1.09349,0.043322
V1,309,1.09704,0.04827
V1,310,1.10059,0.052324
V1,311,1.10414,0.049709
V1,312,1.10769,0.043094
V1,313,1.11124,0.034927
V1,314,1.11479,0.026534
V1,315,1.11834,0.020946
V1,316,1.12189,0.01747
V1,317,1.12544,0.016545
V1,318,1.12899,0.01858
V1,319,1.13254,0.018568
V1,320,1.13609,0.018202
V1,321,1.13964,0.020198
V1,322,1.1432,0.019338
V1,323,1.14675,0.018442
V1,324,1.1503,0.021245
V1,325,1.15385,0.018975
V1,326,1.1574,0.009627
V1,327,1.16095,0.002621
V1,328,1.1645,0.004082
V1,329,1.16805,0.011349
V1,330,1.1716,0.013986
V1,331,1.17515,0.007257
V1,332,1.1787,-0.000638
V1,333,1.18225,-0.00308
V1,334,1.1858,-0.005282
V1,335,1.18935,-0.010535
V1,336,1.1929,-0.012811
V1,337,1.19645,-0.013325
V1,338,1.2,-0.019069
V1,339,1.20355,-0.027268
V1,340,1.2071,-0.029873
V1,341,1.21065,-0.02561
V1,342,1.2142,-0.021746
V1,343,1.21775,-0.020617
V1,344,1.2213,-0.01815
V1,345,1.22485,-0.017269
V1,346,1.2284,-0.016858
V1,347,1.23195,-0.016597
V1,348,1.2355,-0.028808
V1,349,1.23905,-0.04669
V1,350,1.2426,-0.052043
V1,351,1.24615,-0.050263
V1,352,1.2497,-0.050142
V1,353,1.25325,-0.050854
V1,354,1.2568,-0.053243
V1,355,1.26036,-0.056227
V1,356,1.26391,-0.057599
V1,357,1.26746,-0.056964
V1,358,1.27101,-0.056489
V1,359,1.27456,-0.059012
V1,360,1.27811,-0.059734
V1,361,1.28166,-0.05628
V1,362,1.28521,-0.053538
V1,363,1.28876,-0.055003
V1,364,1.29231,-0.063822
V1,365,1.29586,-0.073502
V1,366,1.29941,-0.078912
V1,367,1.30296,-0.08731
V1,368,1.30651,-0.096174
V1,369,1.31006,-0.105238
V1,370,1.31361,-0.124035
V1,371,1.31716,-0.143801
V1,372,1.32071,-0.15603
V1,373,1.32426,-0.166164
V1,374,1.32781,-0.161606
V1,375,1.33136,-0.140329
V1,376,1.33491,-0.129939
V1,377,1.33846,-0.133943
V1,378,1.34201,-0.136487
V1,379,1.34556,-0.133807
V1,380,1.34911,-0.127013
V1,381,1.35266,-0.116095
V1,382,1.35621,-0.103565
V1,383,1.35976,-0.096709
V1,384,1.36331,-0.095972
V1,385,1.36686,-0.097995
V1,386,1.37041,-0.102246
V1,387,1.37396,-0.10863
V1,388,1.37751,-0.117011
V1,389,1.38107,-0.121125
V1,390,1.38462,-0.120518
V1,391,1.38817,-0.118499
V1,392,1.39172,-0.110538
V1,393,1.39527,-0.104133
V1,394,1.39882,-0.108497
V1,395,1.40237,-0.114818
V1,396,1.40592,-0.12037
V1,397,1.40947,-0.110973
V1,398,1.41302,-0.073282
V1,399,1.41657,-0.017452
V1,400,1.42012,0.075549
V1,401,1.42367,0.156504
V1,402,1.42722,0.1539
V1,403,1.43077,0.139115
V1,404,1.43432,0.116783
V1,405,1.43787,0.008431
V1,406,1.44142,-0.15358
V1,407,1.44497,-0.32507
V1,408,1.44852,-0.485743
V1,409,1.45207,-0.583197
V1,410,1.45562,-0.59313
V1,411,1.45917,-0.540155
V1,412,1.46272,-0.440076
V1,413,1.46627,-0.31256
V1,414,1.46982,-0.206956
V1,415,1.47337,-0.152836
V1,416,1.47692,-0.140952
V1,417,1.48047,-0.146021
V1,418,1.48402,-0.153971
V1,419,1.48757,-0.160949
V1,420,1.49112,-0.162627
V1,421,1.49467,-0.163473
V1,422,1.49822,-0.166236
V1,423,1.50178,-0.167199
V1,424,1.50533,-0.166272
V1,425,1.50888,-0.166188
V1,426,1.51243,-0.16639
V1,427,1.51598,-0.164361
V1,428,1.51953,-0.162298
V1,429,1.52308,-0.161183
V1,430,1.52663,-0.157703
V1,431,1.53018,-0.151088
V1,432,1.53373,-0.145707
V1,433,1.53728,-0.146151
V1,434,1.54083,-0.148191
V1,435,1.54438,-0.147289
V1,436,1.54793,-0.147461
V1,437,1.55148,-0.146757
V1,438,1.55503,-0.140148
V1,439,1.55858,-0.133821
V1,440,1.56213,-0.132081
V1,441,1.56568,-0.134562
V1,442,1.56923,-0.14014
V1,443,1.57278,-0.142798
V1,444,1.57633,-0.144508
V1,445,1.57988,-0.14466
V1,446,1.58343,-0.136167
V1,447,1.58698,-0.128228
V1,448,1.59053,-0.125128
V1,449,1.59408,-0.120959
V1,450,1.59763,-0.120272
V1,451,1.60118,-0.121108
V1,452,1.60473,-0.121758
V1,453,1.60828,-0.129491
V1,454,1.61183,-0.138527
V1,455,1.61538,-0.141426
V1,456,1.61893,-0.14037
V1,457,1.62249,-0.133898
V1,458,1.62604,-0.121689
V1,459,1.62959,-0.1164
V1,460,1.63314,-0.11475
V1,461,1.63669,-0.104914
V1,462,1.64024,-0.115528
V1,463,1.64379,-0.143098
V1,464,1.64734,-0.150539
V1,465,1.65089,-0.15783
V1,466,1.65444,-0.171802
V1,467,1.65799,-0.17291
V1,468,1.66154,-0.171376
V1,469,1.66509,-0.174927
V1,470,1.66864,-0.178655
V1,471,1.67219,-0.178791
V1,472,1.67574,-0.186555
V1,473,1.67929,-0.204897
V1,474,1.68284,-0.212207
V1,475,1.68639,-0.206689
V1,476,1.68994,-0.201608
V1,477,1.69349,-0.200176
V1,478,1.69704,-0.202313
V1,479,1.70059,-0.201091
V1,480,1.70414,-0.191952
V1,481,1.70769,-0.184826
V1,482,1.71124,-0.182019
V1,483,1.71479,-0.177392
V1,484,1.71834,-0.17517
V1,485,1.72189,-0.175727
V1,486,1.72544,-0.175793
V1,487,1.72899,-0.175167
V1,488,1.73254,-0.167336
V1,489,1.73609,-0.150009
V1,490,1.73964,-0.131971
V1,491,1.7432,-0.123169
V1,492,1.74675,-0.122574
V1,493,1.7503,-0.122369
V1,494,1.75385,-0.125137
V1,495,1.7574,-0.130613
V1,496,1.76095,-0.133557
V1,497,1.7645,-0.140368
V1,498,1.76805,-0.149181
V1,499,1.7716,-0.150886
V1,500,1.77515,-0.149747
V1,501,1.7787,-0.150818
V1,502,1.78225,-0.148989
V1,503,1.7858,-0.140598
V1,504,1.78935,-0.132831
V1,505,1.7929,-0.131133
V1,506,1.79645,-0.133966
V1,507,1.8,-0.138819
V1,508,1.80355,-0.141777
V1,509,1.8071,-0.138976
V1,510,1.81065,-0.132315
V1,511,1.8142,-0.13254
V1,512,1.81775,-0.139147
V1,513,1.8213,-0.140525
V1,514,1.82485,-0.138995
V1,515,1.8284,-0.139863
V1,516,1.83195,-0.139965
V1,517,1.8355,-0.139456
V1,518,1.83905,-0.139875
V1,519,1.8426,-0.136808
V1,520,1.84615,-0.13166
V1,521,1.8497,-0.12799
V1,522,1.85325,-0.121998
V1,523,1.8568,-0.120218
V1,524,1.86036,-0.128605
V1,525,1.86391,-0.136642
V1,526,1.86746,-0.137882
V1,527,1.87101,-0.136277
V1,528,1.87456,-0.138357
V1,529,1.87811,-0.143752
V1,530,1.88166,-0.145227
V1,531,1.88521,-0.144157
V1,532,1.88876,-0.14431
V1,533,1.89231,-0.144391
V1,534,1.89586,-0.143696
V1,535,1.89941,-0.142134
V1,536,1.90296,-0.143774
V1,537,1.90651,-0.149653
V1,538,1.91006,-0.152963
V1,539,1.91361,-0.148926
V1,540,1.91716,-0.142213
V1,541,1.92071,-0.140166
V1,542,1.92426,-0.138965
V1,543,1.92781,-0.142162
V1,544,1.93136,-0.156096
V1,545,1.93491,-0.165692
V1,546,1.93846,-0.165422
V1,547,1.94201,-0.16315
V1,548,1.94556,-0.156344
V1,549,1.94911,-0.145402
V1,550,1.95266,-0.137741
V1,551,1.95621,-0.134778
V1,552,1.95976,-0.135227
V1,553,1.96331,-0.143822
V1,554,1.96686,-0.160746
V1,555,1.97041,-0.179279
V1,556,1.97396,-0.195126
V1,557,1.97751,-0.202906
V1,558,1.98107,-0.202867
V1,559,1.98462,-0.202392
V1,560,1.98817,-0.20237
V1,561,1.99172,-0.201945
V1,562,1.99527,-0.200514
V1,563,1.99882,-0.189859
V1,564,2.00237,-0.17255
V1,565,2.00592,-0.16427
V1,566,2.00947,-0.161636
V1,567,2.01302,-0.154994
V1,568,2.01657,-0.150722
V1,569,2.02012,-0.151376
V1,570,2.02367,-0.154917
V1,571,2.02722,-0.159858
V1,572,2.03077,-0.158736
V1,573,2.03432,-0.149499
V1,574,2.03787,-0.137984
V1,575,2.04142,-0.129031
V1,576,2.04497,-0.128729
V1,577,2.04852,-0.138236
V1,578,2.05207,-0.145192
V1,579,2.05562,-0.144549
V1,580,2.05917,-0.143236
V1,581,2.06272,-0.131322
V1,582,2.06627,-0.099692
V1,583,2.06982,-0.061335
V1,584,2.07337,-0.017483
V1,585,2.07692,0.031494
V1,586,2.08047,0.063082
V1,587,2.08402,0.080656
V1,588,2.08757,0.0977
V1,589,2.09112,0.070098
V1,590,2.09467,-0.043265
V1,591,2.09822,-0.198028
V1,592,2.10178,-0.334081
V1,593,2.10533,-0.43903
V1,594,2.10888,-0.500357
V1,595,2.11243,-0.493955
V1,596,2.11598,-0.423263
V1,597,2.11953,-0.325335
V1,598,2.12308,-0.231566
V1,599,2.12663,-0.157794
V1,600,2.13018,-0.117236
V1,601,2.13373,-0.099773
V1,602,2.13728,-0.089147
V1,603,2.14083,-0.085669
V1,604,2.14438,-0.089544
V1,605,2.14793,-0.093347
V1,606,2.15148,-0.098304
V1,607,2.15503,-0.109745
V1,608,2.15858,-0.108765
V1,609,2.16213,-0.091277
V1,610,2.16568,-0.082557
V1,611,2.16923,-0.079947
V1,612,2.17278,-0.073901
V1,613,2.17633,-0.076586
V1,614,2.17988,-0.086701
V1,615,2.18343,-0.092856
V1,616,2.18698,-0.095252
V1,617,2.19053,-0.092982
V1,618,2.19408,-0.082818
V1,619,2.19763,-0.073296
V1,620,2.20118,-0.068827
V1,621,2.20473,-0.063586
V1,622,2.20828,-0.060112
V1,623,2.21183,-0.062437
V1,624,2.21538,-0.066058
V1,625,2.21893,-0.066933
V1,626,2.22249,-0.064011
V1,627,2.22604,-0.055972
V1,628,2.22959,-0.047494
V1,629,2.23314,-0.04444
V1,630,2.23669,-0.044397
V1,631,2.24024,-0.040531
V1,632,2.24379,-0.032629
V1,633,2.24734,-0.032843
V1,634,2.25089,-0.039544
V1,635,2.25444,-0.038874
V1,636,2.25799,-0.037657
V1,637,2.26154,-0.042784
V1,638,2.26509,-0.04553
V1,639,2.26864,-0.042202
V1,640,2.27219,-0.035439
V1,641,2.27574,-0.030496
V1,642,2.27929,-0.032019
V1,643,2.28284,-0.03595
V1,644,2.28639,-0.039832
V1,645,2.28994,-0.045099
V1,646,2.29349,-0.045164
V1,647,2.29704,-0.043392
V1,648,2.30059,-0.050448
V1,649,2.30414,-0.057647
V1,650,2.30769,-0.059467
V1,651,2.31124,-0.064269
V1,652,2.31479,-0.071045
V1,653,2.31834,-0.076316
V1,654,2.32189,-0.082351
V1,655,2.32544,-0.089432
V1,656,2.32899,-0.096634
V1,657,2.33254,-0.103907
V1,658,2.33609,-0.112094
V1,659,2.33964,-0.117726
V1,660,2.3432,-0.117998
V1,661,2.34675,-0.117824
V1,662,2.3503,-0.115471
V1,663,2.35385,-0.110655
V1,664,2.3574,-0.109482
V1,665,2.36095,-0.102321
V1,666,2.3645,-0.087291
V1,667,2.36805,-0.081275
V1,668,2.3716,-0.081059
V1,669,2.37515,-0.076636
V1,670,2.3787,-0.075144
V1,671,2.38225,-0.0786
V1,672,2.3858,-0.080225
V1,673,2.38935,-0.073978
V1,674,2.3929,-0.058201
V2,0,0.0,0.211054
V2,1,0.00355,0.221796
V2,2,0.0071,0.393747
V2,3,0.01065,0.395369
V2,4,0.0142,0.224188
V2,5,0.01775,0.177669
V2,6,0.0213,0.198376
V2,7,0.02485,0.187247
V2,8,0.0284,0.197988
V2,9,0.03195,0.215074
V2,10,0.0355,0.215608
V2,11,0.03905,0.211373
V2,12,0.0426,0.206259
V2,13,0.04615,0.205168
V2,14,0.0497,0.209993
V2,15,0.05325,0.215003
V2,16,0.0568,0.212984
V2,17,0.06036,0.209515
V2,18,0.06391,0.212692
V2,19,0.06746,0.214343
V2,20,0.07101,0.212653
V2,21,0.07456,0.213273
V2,22,0.07811,0.211487
V2,23,0.08166,0.206149
V2,24,0.08521,0.201962
V2,25,0.08876,0.209563
V2,26,0.09231,0.237119
V2,27,0.09586,0.284702
V2,28,0.09941,0.343655
V2,29,0.10296,0.39219
V2,30,0.10651,0.444792
V2,31,0.11006,0.526033
V2,32,0.11361,0.58915
V2,33,0.11716,0.552084
V2,34,0.12071,0.412326
V2,35,0.12426,0.231781
V2,36,0.12781,0.00696
V2,37,0.13136,-0.229482
V2,38,0.13491,-0.358666
V2,39,0.13846,-0.359083
V2,40,0.14201,-0.277575
V2,41,0.14556,-0.135671
V2,42,0.14911,0.024306
V2,43,0.15266,0.149203
V2,44,0.15621,0.215542
V2,45,0.15976,0.231838
V2,46,0.16331,0.233485
V2,47,0.16686,0.243667
V2,48,0.17041,0.247336
V2,49,0.17396,0.229784
V2,50,0.17751,0.204688
V2,51,0.18107,0.189859
V2,52,0.18462,0.185294
V2,53,0.18817,0.189262
V2,54,0.19172,0.202746
V2,55,0.19527,0.212574
V2,56,0.19882,0.20883
V2,57,0.20237,0.201897
V2,58,0.20592,0.200871
V2,59,0.20947,0.205272
V2,60,0.21302,0.21079
V2,61,0.21657,0.207705
V2,62,0.22012,0.195074
V2,63,0.22367,0.186828
V2,64,0.22722,0.191619
V2,65,0.23077,0.202513
V2,66,0.23432,0.209655
V2,67,0.23787,0.210718
V2,68,0.24142,0.206736
V2,69,0.24497,0.200546
V2,70,0.24852,0.19851
V2,71,0.25207,0.202588
V2,72,0.25562,0.204158
V2,73,0.25917,0.197263
V2,74,0.26272,0.190167
V2,75,0.26627,0.190612
V2,76,0.26982,0.194841
V2,77,0.27337,0.203219
V2,78,0.27692,0.21514
V2,79,0.28047,0.217309
V2,80,0.28402,0.211937
V2,81,0.28757,0.214064
V2,82,0.29112,0.222118
V2,83,0.29467,0.224934
V2,84,0.29822,0.218197
V2,85,0.30178,0.211321
V2,86,0.30533,0.214452
V2,87,0.30888,0.223692
V2,88,0.31243,0.22776
V2,89,0.31598,0.221398
V2,90,0.31953,0.210842
V2,91,0.32308,0.203091
V2,92,0.32663,0.204414
V2,93,0.33018,0.212609
V2,94,0.33373,0.208011
V2,95,0.33728,0.188995
V2,96,0.34083,0.175139
V2,97,0.34438,0.171347
V2,98,0.34793,0.175374
V2,99,0.35148,0.185348
V2,100,0.35503,0.187749
V2,101,0.35858,0.169815
V2,102,0.36213,0.142105
V2,103,0.36568,0.130404
V2,104,0.36923,0.140018
V2,105,0.37278,0.147562
V2,106,0.37633,0.138262
V2,107,0.37988,0.125536
V2,108,0.38343,0.124743
V2,109,0.38698,0.137161
V2,110,0.39053,0.157046
V2,111,0.39408,0.17315
V2,112,0.39763,0.173442
V2,113,0.40118,0.160665
V2,114,0.40473,0.153997
V2,115,0.40828,0.162994
V2,116,0.41183,0.174684
V2,117,0.41538,0.177489
V2,118,0.41893,0.17323
V2,119,0.42249,0.167465
V2,120,0.42604,0.169339
V2,121,0.42959,0.179339
V2,122,0.43314,0.184729
V2,123,0.43669,0.17787
V2,124,0.44024,0.161866
V2,125,0.44379,0.151993
V2,126,0.44734,0.156171
V2,127,0.45089,0.165228
V2,128,0.45444,0.172238
V2,129,0.45799,0.166903
V2,130,0.46154,0.15226
V2,131,0.46509,0.152741
V2,132,0.46864,0.167304
V2,133,0.47219,0.174319
V2,134,0.47574,0.166285
V2,135,0.47929,0.146655
V2,136,0.48284,0.131646
V2,137,0.48639,0.141164
V2,138,0.48994,0.16993
V2,139,0.49349,0.191526
V2,140,0.49704,0.191592
V2,141,0.50059,0.179765
V2,142,0.50414,0.172532
V2,143,0.50769,0.181169
V2,144,0.51124,0.195327
V2,145,0.51479,0.19158
V2,146,0.51834,0.1683
V2,147,0.52189,0.147456
V2,148,0.52544,0.145282
V2,149,0.52899,0.156575
V2,150,0.53254,0.193628
V2,151,0.53609,0.183487
V2,152,0.53964,0.147951
V2,153,0.5432,0.207132
V2,154,0.54675,0.033997
V2,155,0.5503,-0.463321
V2,156,0.55385,-0.733244
V2,157,0.5574,-0.473631
V2,158,0.56095,0.008908
