lead,sample,time_s,mv
I,0,0.0,0.014861
I,1,0.00334,0.011008
I,2,0.00669,0.006091
I,3,0.01003,0.002239
I,4,0.01337,0.004486
I,5,0.01671,0.009127
I,6,0.02006,0.005617
I,7,0.0234,-0.007694
I,8,0.02674,-0.01869
I,9,0.03008,-0.017701
I,10,0.03343,-0.011287
I,11,0.03677,-0.009453
I,12,0.04011,-0.010146
I,13,0.04345,-0.008148
I,14,0.0468,-0.00316
I,15,0.05014,0.0115
I,16,0.05348,0.031751
I,17,0.05682,0.034837
I,18,0.06017,0.019748
I,19,0.06351,-0.003736
I,20,0.06685,-0.043062
I,21,0.07019,-0.092243
I,22,0.07354,-0.120894
I,23,0.07688,-0.132149
I,24,0.08022,-0.150729
I,25,0.08357,-0.132501
I,26,0.08691,-0.06602
I,27,0.09025,0.013713
I,28,0.09359,0.201269
I,29,0.09694,0.577277
I,30,0.10028,1.021195
I,31,0.10362,1.347897
I,32,0.10696,1.498892
I,33,0.11031,1.446675
I,34,0.11365,1.131254
I,35,0.11699,0.697881
I,36,0.12033,0.369426
I,37,0.12368,0.177642
I,38,0.12702,0.081494
I,39,0.13036,0.051194
I,40,0.1337,0.042381
I,41,0.13705,0.027585
I,42,0.14039,0.008433
I,43,0.14373,-0.008868
I,44,0.14708,-0.020477
I,45,0.15042,-0.020257
I,46,0.15376,-0.013831
I,47,0.1571,-0.02174
I,48,0.16045,-0.048272
I,49,0.16379,-0.071759
I,50,0.16713,-0.078783
I,51,0.17047,-0.072452
I,52,0.17382,-0.056405
I,53,0.17716,-0.037212
I,54,0.1805,-0.030736
I,55,0.18384,-0.045339
I,56,0.18719,-0.063656
I,57,0.19053,-0.066571
I,58,0.19387,-0.057808
I,59,0.19721,-0.052008
I,60,0.20056,-0.057286
I,61,0.2039,-0.067934
I,62,0.20724,-0.072967
I,63,0.21058,-0.071083
I,64,0.21393,-0.067293
I,65,0.21727,-0.065385
I,66,0.22061,-0.068004
I,67,0.22396,-0.070872
I,68,0.2273,-0.066485
I,69,0.23064,-0.055002
I,70,0.23398,-0.043759
I,71,0.23733,-0.04193
I,72,0.24067,-0.052007
I,73,0.24401,-0.066067
I,74,0.24735,-0.075343
I,75,0.2507,-0.077458
I,76,0.25404,-0.069917
I,77,0.25738,-0.05471
I,78,0.26072,-0.045874
I,79,0.26407,-0.049555
I,80,0.26741,-0.061305
I,81,0.27075,-0.078298
I,82,0.27409,-0.090411
I,83,0.27744,-0.092486
I,84,0.28078,-0.092312
I,85,0.28412,-0.086538
I,86,0.28747,-0.072423
I,87,0.29081,-0.062602
I,88,0.29415,-0.057397
I,89,0.29749,-0.049997
I,90,0.30084,-0.050357
I,91,0.30418,-0.063122
I,92,0.30752,-0.072684
I,93,0.31086,-0.072656
I,94,0.31421,-0.071849
I,95,0.31755,-0.064801
I,96,0.32089,-0.047512
I,97,0.32423,-0.035554
I,98,0.32758,-0.032373
I,99,0.33092,-0.029002
I,100,0.33426,-0.028291
I,101,0.3376,-0.0356
I,102,0.34095,-0.044042
I,103,0.34429,-0.049758
I,104,0.34763,-0.058904
I,105,0.35097,-0.066249
I,106,0.35432,-0.065439
I,107,0.35766,-0.064108
I,108,0.361,-0.06334
I,109,0.36435,-0.060299
I,110,0.36769,-0.059542
I,111,0.37103,-0.060123
I,112,0.37437,-0.057682
I,113,0.37772,-0.055968
I,114,0.38106,-0.059046
I,115,0.3844,-0.057672
I,116,0.38774,-0.045638
I,117,0.39109,-0.03486
I,118,0.39443,-0.031245
I,119,0.39777,-0.033285
I,120,0.40111,-0.040346
I,121,0.40446,-0.042679
I,122,0.4078,-0.038479
I,123,0.41114,-0.033905
I,124,0.41448,-0.026471
I,125,0.41783,-0.014988
I,126,0.42117,0.002312
I,127,0.42451,0.025715
I,128,0.42786,0.041865
I,129,0.4312,0.042456
I,130,0.43454,0.036257
I,131,0.43788,0.02686
I,132,0.44123,0.009276
I,133,0.44457,-0.009593
I,134,0.44791,-0.02115
I,135,0.45125,-0.029653
I,136,0.4546,-0.035526
I,137,0.45794,-0.03614
I,138,0.46128,-0.036375
I,139,0.46462,-0.036659
I,140,0.46797,-0.032233
I,141,0.47131,-0.019036
I,142,0.47465,-0.00323
I,143,0.47799,-0.00272
I,144,0.48134,-0.016008
I,145,0.48468,-0.033174
I,146,0.48802,-0.056522
I,147,0.49136,-0.073932
I,148,0.49471,-0.075875
I,149,0.49805,-0.071404
I,150,0.50139,-0.064502
I,151,0.50474,-0.058822
I,152,0.50808,-0.055969
I,153,0.51142,-0.05196
I,154,0.51476,-0.04632
I,155,0.51811,-0.038589
I,156,0.52145,-0.031
I,157,0.52479,-0.020418
I,158,0.52813,-0.006782
I,159,0.53148,-0.008027
I,160,0.53482,-0.026918
I,161,0.53816,-0.052657
I,162,0.5415,-0.07973
I,163,0.54485,-0.09535
I,164,0.54819,-0.095326
I,165,0.55153,-0.084741
I,166,0.55487,-0.068093
I,167,0.55822,-0.057546
I,168,0.56156,-0.056545
I,169,0.5649,-0.060072
I,170,0.56825,-0.068593
I,171,0.57159,-0.077368
I,172,0.57493,-0.076929
I,173,0.57827,-0.065396
I,174,0.58162,-0.050883
I,175,0.58496,-0.040484
I,176,0.5883,-0.034362
I,177,0.59164,-0.034644
I,178,0.59499,-0.039839
I,179,0.59833,-0.042125
I,180,0.60167,-0.039034
I,181,0.60501,-0.034745
I,182,0.60836,-0.033524
I,183,0.6117,-0.034079
I,184,0.61504,-0.033632
I,185,0.61838,-0.030837
I,186,0.62173,-0.024614
I,187,0.62507,-0.014771
I,188,0.62841,0.000399
I,189,0.63175,0.011132
I,190,0.6351,-0.001408
I,191,0.63844,-0.02759
I,192,0.64178,-0.04501
I,193,0.64513,-0.058437
I,194,0.64847,-0.070878
I,195,0.65181,-0.068438
I,196,0.65515,-0.052298
I,197,0.6585,-0.040727
I,198,0.66184,-0.043009
I,199,0.66518,-0.04962
I,200,0.66852,-0.053788
I,201,0.67187,-0.060728
I,202,0.67521,-0.067925
I,203,0.67855,-0.0695
I,204,0.68189,-0.067303
I,205,0.68524,-0.061266
I,206,0.68858,-0.051649
I,207,0.69192,-0.043941
I,208,0.69526,-0.041758
I,209,0.69861,-0.042374
I,210,0.70195,-0.041061
I,211,0.70529,-0.035534
I,212,0.70864,-0.023588
I,213,0.71198,-0.009644
I,214,0.71532,-0.005837
I,215,0.71866,-0.015604
I,216,0.72201,-0.033608
I,217,0.72535,-0.05153
I,218,0.72869,-0.060592
I,219,0.73203,-0.061615
I,220,0.73538,-0.058381
I,221,0.73872,-0.051667
I,222,0.74206,-0.050347
I,223,0.7454,-0.062545
I,224,0.74875,-0.076403
I,225,0.75209,-0.079198
I,226,0.75543,-0.07761
I,227,0.75877,-0.075331
I,228,0.76212,-0.070713
I,229,0.76546,-0.068835
I,230,0.7688,-0.069516
I,231,0.77214,-0.070212
I,232,0.77549,-0.066409
I,233,0.77883,-0.050945
I,234,0.78217,-0.033308
I,235,0.78552,-0.026422
I,236,0.78886,-0.023435
I,237,0.7922,-0.017937
I,238,0.79554,-0.012951
I,239,0.79889,-0.006335
I,240,0.80223,0.001868
I,241,0.80557,0.00234
I,242,0.80891,-0.010536
I,243,0.81226,-0.028614
I,244,0.8156,-0.046132
I,245,0.81894,-0.063084
I,246,0.82228,-0.070969
I,247,0.82563,-0.068347
I,248,0.82897,-0.060935
I,249,0.83231,-0.050156
I,250,0.83565,-0.041758
I,251,0.839,-0.039428
I,252,0.84234,-0.042682
I,253,0.84568,-0.051439
I,254,0.84903,-0.059392
I,255,0.85237,-0.060844
I,256,0.85571,-0.056241
I,257,0.85905,-0.050688
I,258,0.8624,-0.050321
I,259,0.86574,-0.049741
I,260,0.86908,-0.044734
I,261,0.87242,-0.039608
I,262,0.87577,-0.03193
I,263,0.87911,-0.02238
I,264,0.88245,-0.014807
I,265,0.88579,-0.005794
I,266,0.88914,0.000137
I,267,0.89248,-0.004478
I,268,0.89582,-0.013599
I,269,0.89916,-0.022176
I,270,0.90251,-0.031863
I,271,0.90585,-0.041985
I,272,0.90919,-0.051677
I,273,0.91253,-0.057612
I,274,0.91588,-0.05768
I,275,0.91922,-0.05754
I,276,0.92256,-0.057347
I,277,0.92591,-0.051573
I,278,0.92925,-0.041643
I,279,0.93259,-0.031651
I,280,0.93593,-0.022335
I,281,0.93928,-0.01092
I,282,0.94262,0.002063
I,283,0.94596,0.012634
I,284,0.9493,0.019867
I,285,0.95265,0.020556
I,286,0.95599,0.015752
I,287,0.95933,0.013036
I,288,0.96267,0.013699
I,289,0.96602,0.019835
I,290,0.96936,0.038738
I,291,0.9727,0.065999
I,292,0.97604,0.084112
I,293,0.97939,0.08695
I,294,0.98273,0.082592
I,295,0.98607,0.074336
I,296,0.98942,0.064023
I,297,0.99276,0.058369
I,298,0.9961,0.058585
I,299,0.99944,0.05907
I,300,1.00279,0.057961
I,301,1.00613,0.055215
I,302,1.00947,0.047419
I,303,1.01281,0.031351
I,304,1.01616,0.005478
I,305,1.0195,-0.019518
I,306,1.02284,-0.029688
I,307,1.02618,-0.035981
I,308,1.02953,-0.046807
I,309,1.03287,-0.049665
I,310,1.03621,-0.046845
I,311,1.03955,-0.045503
I,312,1.0429,-0.040545
I,313,1.04624,-0.032734
I,314,1.04958,-0.022885
I,315,1.05292,-0.012646
I,316,1.05627,-0.012124
I,317,1.05961,-0.025883
I,318,1.06295,-0.053327
I,319,1.0663,-0.08114
I,320,1.06964,-0.088007
I,321,1.07298,-0.082241
I,322,1.07632,-0.081991
I,323,1.07967,-0.080546
I,324,1.08301,-0.075913
I,325,1.08635,-0.087115
I,326,1.08969,-0.119796
I,327,1.09304,-0.170381
I,328,1.09638,-0.20554
I,329,1.09972,-0.162242
I,330,1.10306,-0.079042
I,331,1.10641,0.030717
I,332,1.10975,0.322591
I,333,1.11309,0.785935
I,334,1.11643,1.114075
I,335,1.11978,1.217574
I,336,1.12312,1.33495
I,337,1.12646,1.364943
I,338,1.12981,1.048437
I,339,1.13315,0.613706
I,340,1.13649,0.329035
I,341,1.13983,0.167587
I,342,1.14318,0.083161
I,343,1.14652,0.043929
I,344,1.14986,0.011804
I,345,1.1532,-0.011735
I,346,1.15655,-0.026139
I,347,1.15989,-0.050545
I,348,1.16323,-0.078698
I,349,1.16657,-0.093019
I,350,1.16992,-0.099992
I,351,1.17326,-0.10193
I,352,1.1766,-0.098868
I,353,1.17994,-0.099608
I,354,1.18329,-0.103136
I,355,1.18663,-0.104497
I,356,1.18997,-0.103677
I,357,1.19331,-0.10121
I,358,1.19666,-0.098632
I,359,1.2,-0.101966
I,360,1.20334,-0.110891
I,361,1.20669,-0.113395
I,362,1.21003,-0.104489
I,363,1.21337,-0.091021
I,364,1.21671,-0.084393
I,365,1.22006,-0.091032
I,366,1.2234,-0.103624
I,367,1.22674,-0.114114
I,368,1.23008,-0.120399
I,369,1.23343,-0.120975
I,370,1.23677,-0.11684
I,371,1.24011,-0.112282
I,372,1.24345,-0.111275
I,373,1.2468,-0.114626
I,374,1.25014,-0.121698
I,375,1.25348,-0.128682
I,376,1.25682,-0.128606
I,377,1.26017,-0.119018
I,378,1.26351,-0.105549
I,379,1.26685,-0.095036
I,380,1.27019,-0.088084
I,381,1.27354,-0.084161
I,382,1.27688,-0.086241
I,383,1.28022,-0.092896
I,384,1.28357,-0.096533
I,385,1.28691,-0.09598
I,386,1.29025,-0.097153
I,387,1.29359,-0.102611
I,388,1.29694,-0.113748
I,389,1.30028,-0.129347
I,390,1.30362,-0.140905
I,391,1.30696,-0.141587
I,392,1.31031,-0.130958
I,393,1.31365,-0.115162
I,394,1.31699,-0.102814
I,395,1.32033,-0.097249
I,396,1.32368,-0.096525
I,397,1.32702,-0.096941
I,398,1.33036,-0.099112
I,399,1.3337,-0.103097
I,400,1.33705,-0.107526
I,401,1.34039,-0.113638
I,402,1.34373,-0.115235
I,403,1.34708,-0.107971
I,404,1.35042,-0.097165
I,405,1.35376,-0.088911
I,406,1.3571,-0.089698
I,407,1.36045,-0.096442
I,408,1.36379,-0.100043
I,409,1.36713,-0.098755
I,410,1.37047,-0.088987
I,411,1.37382,-0.072904
I,412,1.37716,-0.063187
I,413,1.3805,-0.062871
I,414,1.38384,-0.074451
I,415,1.38719,-0.10052
I,416,1.39053,-0.123326
I,417,1.39387,-0.129862
I,418,1.39721,-0.122483
I,419,1.40056,-0.102578
I,420,1.4039,-0.082603
I,421,1.40724,-0.074605
I,422,1.41058,-0.073926
I,423,1.41393,-0.074532
I,424,1.41727,-0.073513
I,425,1.42061,-0.067278
I,426,1.42396,-0.055671
I,427,1.4273,-0.043167
I,428,1.43064,-0.027439
I,429,1.43398,-0.007123
I,430,1.43733,0.004564
I,431,1.44067,0.004186
I,432,1.44401,0.002027
I,433,1.44735,0.004031
I,434,1.4507,0.01194
I,435,1.45404,0.019768
I,436,1.45738,0.021666
I,437,1.46072,0.018793
I,438,1.46407,0.011291
I,439,1.46741,0.001794
I,440,1.47075,-0.007002
I,441,1.47409,-0.016521
I,442,1.47744,-0.024165
I,443,1.48078,-0.026875
I,444,1.48412,-0.024889
I,445,1.48747,-0.017707
I,446,1.49081,-0.008323
I,447,1.49415,0.000188
I,448,1.49749,0.00933
I,449,1.50084,0.016365
I,450,1.50418,0.017532
I,451,1.50752,0.01667
I,452,1.51086,0.016761
I,453,1.51421,0.01638
I,454,1.51755,0.016592
I,455,1.52089,0.015743
I,456,1.52423,0.006034
I,457,1.52758,-0.010559
I,458,1.53092,-0.020114
I,459,1.53426,-0.020257
I,460,1.5376,-0.021541
I,461,1.54095,-0.020026
I,462,1.54429,-0.011004
I,463,1.54763,-0.017343
I,464,1.55097,-0.043084
I,465,1.55432,-0.060425
I,466,1.55766,-0.065611
I,467,1.561,-0.066114
I,468,1.56435,-0.058388
I,469,1.56769,-0.049402
I,470,1.57103,-0.050133
I,471,1.57437,-0.059231
I,472,1.57772,-0.067258
I,473,1.58106,-0.069078
I,474,1.5844,-0.066852
I,475,1.58774,-0.061449
I,476,1.59109,-0.049256
I,477,1.59443,-0.035991
I,478,1.59777,-0.034584
I,479,1.60111,-0.040783
I,480,1.60446,-0.046019
I,481,1.6078,-0.049583
I,482,1.61114,-0.045706
I,483,1.61448,-0.035378
I,484,1.61783,-0.027235
I,485,1.62117,-0.026541
I,486,1.62451,-0.032449
I,487,1.62786,-0.033185
I,488,1.6312,-0.030919
I,489,1.63454,-0.041551
I,490,1.63788,-0.053296
I,491,1.64123,-0.04826
I,492,1.64457,-0.034773
I,493,1.64791,-0.022177
I,494,1.65125,-0.009244
I,495,1.6546,0.002257
I,496,1.65794,0.007793
I,497,1.66128,0.003783
I,498,1.66462,-0.011314
I,499,1.66797,-0.029312
I,500,1.67131,-0.041322
I,501,1.67465,-0.048064
I,502,1.67799,-0.050714
I,503,1.68134,-0.047674
I,504,1.68468,-0.040103
I,505,1.68802,-0.032369
I,506,1.69136,-0.02205
I,507,1.69471,-0.008129
I,508,1.69805,-0.005869
I,509,1.70139,-0.0246
I,510,1.70474,-0.04865
I,511,1.70808,-0.059928
I,512,1.71142,-0.0608
I,513,1.71476,-0.060899
I,514,1.71811,-0.06094
I,515,1.72145,-0.060004
I,516,1.72479,-0.060493
I,517,1.72813,-0.060721
I,518,1.73148,-0.052972
I,519,1.73482,-0.035591
I,520,1.73816,-0.018342
I,521,1.7415,-0.00743
I,522,1.74485,0.000169
I,523,1.74819,0.008265
I,524,1.75153,0.009607
I,525,1.75487,-0.007352
I,526,1.75822,-0.026916
I,527,1.76156,-0.036436
I,528,1.7649,-0.046917
I,529,1.76825,-0.048696
I,530,1.77159,-0.037253
I,531,1.77493,-0.029226
I,532,1.77827,-0.027173
I,533,1.78162,-0.029596
I,534,1.78496,-0.034806
I,535,1.7883,-0.039744
I,536,1.79164,-0.047583
I,537,1.79499,-0.054511
I,538,1.79833,-0.057631
I,539,1.80167,-0.06182
I,540,1.80501,-0.065765
I,541,1.80836,-0.065497
I,542,1.8117,-0.056395
I,543,1.81504,-0.039707
I,544,1.81838,-0.02903
I,545,1.82173,-0.029081
I,546,1.82507,-0.029478
I,547,1.82841,-0.022875
I,548,1.83175,-0.012508
I,549,1.8351,-0.005628
I,550,1.83844,-0.000468
I,551,1.84178,0.004936
I,552,1.84513,0.003631
I,553,1.84847,-0.0016
I,554,1.85181,-0.009957
I,555,1.85515,-0.026191
I,556,1.8585,-0.040072
I,557,1.86184,-0.046595
I,558,1.86518,-0.048361
I,559,1.86852,-0.041336
I,560,1.87187,-0.030986
I,561,1.87521,-0.031712
I,562,1.87855,-0.044426
I,563,1.88189,-0.057528
I,564,1.88524,-0.065145
I,565,1.88858,-0.068735
I,566,1.89192,-0.06653
I,567,1.89526,-0.054618
I,568,1.89861,-0.039449
I,569,1.90195,-0.026375
I,570,1.90529,-0.014499
I,571,1.90864,-0.015377
I,572,1.91198,-0.029446
I,573,1.91532,-0.037313
I,574,1.91866,-0.036954
I,575,1.92201,-0.035865
I,576,1.92535,-0.031458
I,577,1.92869,-0.022418
I,578,1.93203,-0.011743
I,579,1.93538,-0.002067
I,580,1.93872,0.00365
I,581,1.94206,-0.004702
I,582,1.9454,-0.026782
I,583,1.94875,-0.040027
I,584,1.95209,-0.038555
I,585,1.95543,-0.033077
I,586,1.95877,-0.024241
I,587,1.96212,-0.017662
I,588,1.96546,-0.019051
I,589,1.9688,-0.020839
I,590,1.97214,-0.018338
I,591,1.97549,-0.014034
I,592,1.97883,-0.005115
I,593,1.98217,0.014075
I,594,1.98552,0.031872
I,595,1.98886,0.035377
I,596,1.9922,0.038178
I,597,1.99554,0.047504
I,598,1.99889,0.053941
I,599,2.00223,0.057249
I,600,2.00557,0.054684
I,601,2.00891,0.044986
I,602,2.01226,0.040329
I,603,2.0156,0.042923
I,604,2.01894,0.046475
I,605,2.02228,0.053443
I,606,2.02563,0.063913
I,607,2.02897,0.077135
I,608,2.03231,0.093035
I,609,2.03565,0.093871
I,610,2.039,0.064045
I,611,2.04234,0.016623
I,612,2.04568,-0.025536
I,613,2.04903,-0.039469
I,614,2.05237,-0.020716
I,615,2.05571,-0.000357
I,616,2.05905,0.011163
I,617,2.0624,0.024373
I,618,2.06574,0.017335
I,619,2.06908,-0.014881
I,620,2.07242,-0.036953
I,621,2.07577,-0.043651
I,622,2.07911,-0.052769
I,623,2.08245,-0.060913
I,624,2.08579,-0.064491
I,625,2.08914,-0.065351
I,626,2.09248,-0.060335
I,627,2.09582,-0.052343
I,628,2.09916,-0.049965
I,629,2.10251,-0.054707
I,630,2.10585,-0.066103
I,631,2.10919,-0.093268
I,632,2.11253,-0.127367
I,633,2.11588,-0.156778
I,634,2.11922,-0.179219
I,635,2.12256,-0.166543
I,636,2.12591,-0.137905
I,637,2.12925,-0.028364
I,638,2.13259,0.212302
I,639,2.13593,0.385146
I,640,2.13928,0.67237
I,641,2.14262,1.20641
I,642,2.14596,1.446469
I,643,2.1493,1.375025
I,644,2.15265,1.25978
I,645,2.15599,0.918661
I,646,2.15933,0.482017
I,647,2.16267,0.21669
I,648,2.16602,0.082281
I,649,2.16936,0.027297
I,650,2.1727,0.027353
I,651,2.17604,0.038409
I,652,2.17939,0.039033
I,653,2.18273,0.017987
I,654,2.18607,-0.009973
I,655,2.18942,-0.025045
I,656,2.19276,-0.03252
I,657,2.1961,-0.033707
I,658,2.19944,-0.031991
I,659,2.20279,-0.043482
I,660,2.20613,-0.063976
I,661,2.20947,-0.075276
I,662,2.21281,-0.075154
I,663,2.21616,-0.071275
I,664,2.2195,-0.064257
I,665,2.22284,-0.053406
I,666,2.22618,-0.045975
I,667,2.22953,-0.046447
I,668,2.23287,-0.049901
I,669,2.23621,-0.049715
I,670,2.23955,-0.050539
I,671,2.2429,-0.059446
I,672,2.24624,-0.062044
I,673,2.24958,-0.045101
I,674,2.25292,-0.020862
I,675,2.25627,-0.005324
I,676,2.25961,-0.004445
I,677,2.26295,-0.012785
I,678,2.2663,-0.017053
I,679,2.26964,-0.014113
I,680,2.27298,-0.010361
I,681,2.27632,-0.001895
I,682,2.27967,0.008779
I,683,2.28301,0.001432
I,684,2.28635,-0.014006
I,685,2.28969,-0.017414
I,686,2.29304,-0.019957
I,687,2.29638,-0.016233
I,688,2.29972,0.000891
I,689,2.30306,0.010891
I,690,2.30641,0.010635
I,691,2.30975,0.010008
I,692,2.31309,0.011196
I,693,2.31643,0.01283
I,694,2.31978,0.007678
I,695,2.32312,-0.001012
I,696,2.32646,-0.002784
I,697,2.32981,0.000406
I,698,2.33315,0.007326
I,699,2.33649,0.019901
I,700,2.33983,0.031789
I,701,2.34318,0.040011
I,702,2.34652,0.049667
I,703,2.34986,0.060925
I,704,2.3532,0.067678
I,705,2.35655,0.063361
I,706,2.35989,0.047241
I,707,2.36323,0.032168
I,708,2.36657,0.029625
I,709,2.36992,0.036146
I,710,2.37326,0.049171
I,711,2.3766,0.065197
I,712,2.37994,0.071688
I,713,2.38329,0.070193
I,714,2.38663,0.065042
I,715,2.38997,0.045001
I,716,2.39331,0.027262
I,717,2.39666,0.038924
II,0,0.0,0.080408
II,1,0.00334,0.086356
II,2,0.00669,0.076698
II,3,0.01003,0.050236
II,4,0.01337,0.038311
II,5,0.01671,0.038124
II,6,0.02006,0.027826
II,7,0.0234,0.021167
II,8,0.02674,0.02253
II,9,0.03008,0.017286
II,10,0.03343,0.007855
II,11,0.03677,0.00112
II,12,0.04011,0.002283
II,13,0.04345,0.021589
II,14,0.0468,0.049077
II,15,0.05014,0.064491
II,16,0.05348,0.067466
II,17,0.05682,0.065968
II,18,0.06017,0.0629
II,19,0.06351,0.055766
II,20,0.06685,0.052764
II,21,0.07019,0.066101
II,22,0.07354,0.080937
II,23,0.07688,0.098687
II,24,0.08022,0.147235
II,25,0.08357,0.217213
II,26,0.08691,0.284908
II,27,0.09025,0.36901
II,28,0.09359,0.490459
II,29,0.09694,0.601658
II,30,0.10028,0.644477
II,31,0.10362,0.560033
II,32,0.10696,0.335658
II,33,0.11031,0.121953
II,34,0.11365,-0.01394
II,35,0.11699,-0.12958
II,36,0.12033,-0.219191
II,37,0.12368,-0.286435
II,38,0.12702,-0.290663
II,39,0.13036,-0.211881
II,40,0.1337,-0.135162
II,41,0.13705,-0.08754
II,42,0.14039,-0.047091
II,43,0.14373,-0.014316
II,44,0.14708,0.009799
II,45,0.15042,0.027763
II,46,0.15376,0.029459
II,47,0.1571,0.009873
II,48,0.16045,-0.007746
II,49,0.16379,-0.011706
II,50,0.16713,-0.009288
II,51,0.17047,0.00023
II,52,0.17382,0.012068
II,53,0.17716,0.019376
II,54,0.1805,0.025318
II,55,0.18384,0.027549
II,56,0.18719,0.0212
II,57,0.19053,0.012628
II,58,0.19387,0.008304
II,59,0.19721,0.005517
II,60,0.20056,0.00328
II,61,0.2039,0.007166
II,62,0.20724,0.015011
II,63,0.21058,0.016693
II,64,0.21393,0.012888
II,65,0.21727,0.010073
II,66,0.22061,0.008309
II,67,0.22396,0.0111
II,68,0.2273,0.020851
II,69,0.23064,0.027263
II,70,0.23398,0.028311
II,71,0.23733,0.031323
II,72,0.24067,0.030995
II,73,0.24401,0.025416
II,74,0.24735,0.023135
II,75,0.2507,0.026036
II,76,0.25404,0.02921
II,77,0.25738,0.029086
II,78,0.26072,0.028238
II,79,0.26407,0.027359
II,80,0.26741,0.021877
II,81,0.27075,0.009142
II,82,0.27409,-0.007801
II,83,0.27744,-0.019809
II,84,0.28078,-0.020754
II,85,0.28412,-0.009711
II,86,0.28747,0.006359
II,87,0.29081,0.014336
II,88,0.29415,0.015644
II,89,0.29749,0.018129
II,90,0.30084,0.022612
II,91,0.30418,0.028407
II,92,0.30752,0.028745
II,93,0.31086,0.021402
II,94,0.31421,0.015942
II,95,0.31755,0.019873
II,96,0.32089,0.03145
II,97,0.32423,0.04546
II,98,0.32758,0.059804
II,99,0.33092,0.068264
II,100,0.33426,0.067817
II,101,0.3376,0.066273
II,102,0.34095,0.065726
II,103,0.34429,0.066185
II,104,0.34763,0.075141
II,105,0.35097,0.09036
II,106,0.35432,0.098664
II,107,0.35766,0.098451
II,108,0.361,0.097616
II,109,0.36435,0.097779
II,110,0.36769,0.097164
II,111,0.37103,0.095867
II,112,0.37437,0.095001
II,113,0.37772,0.094702
II,114,0.38106,0.093461
II,115,0.3844,0.095145
II,116,0.38774,0.101893
II,117,0.39109,0.100096
II,118,0.39443,0.082933
II,119,0.39777,0.064944
II,120,0.40111,0.054202
II,121,0.40446,0.047266
II,122,0.4078,0.044666
II,123,0.41114,0.044623
II,124,0.41448,0.042755
II,125,0.41783,0.043859
II,126,0.42117,0.052047
II,127,0.42451,0.058786
II,128,0.42786,0.061387
II,129,0.4312,0.065813
II,130,0.43454,0.067021
II,131,0.43788,0.057223
II,132,0.44123,0.039142
II,133,0.44457,0.022231
II,134,0.44791,0.011088
II,135,0.45125,0.001408
II,136,0.4546,-0.006591
II,137,0.45794,-0.009217
II,138,0.46128,-0.007015
II,139,0.46462,-0.000397
II,140,0.46797,0.008231
II,141,0.47131,0.016112
II,142,0.47465,0.024443
II,143,0.47799,0.033026
II,144,0.48134,0.033349
II,145,0.48468,0.012655
II,146,0.48802,-0.020291
II,147,0.49136,-0.039915
II,148,0.49471,-0.042997
II,149,0.49805,-0.037886
II,150,0.50139,-0.02595
II,151,0.50474,-0.01387
II,152,0.50808,-0.007994
II,153,0.51142,-0.009263
II,154,0.51476,-0.015619
II,155,0.51811,-0.020299
II,156,0.52145,-0.013617
II,157,0.52479,0.004325
II,158,0.52813,0.018481
II,159,0.53148,0.021272
II,160,0.53482,0.017096
II,161,0.53816,0.003813
II,162,0.5415,-0.019628
II,163,0.54485,-0.03868
II,164,0.54819,-0.041709
II,165,0.55153,-0.031288
II,166,0.55487,-0.015614
II,167,0.55822,-0.006303
II,168,0.56156,-0.004853
II,169,0.5649,-0.007293
II,170,0.56825,-0.018594
II,171,0.57159,-0.033025
II,172,0.57493,-0.038229
II,173,0.57827,-0.033252
II,174,0.58162,-0.018317
II,175,0.58496,-0.000924
II,176,0.5883,0.005372
II,177,0.59164,0.006577
II,178,0.59499,0.014619
II,179,0.59833,0.022339
II,180,0.60167,0.025997
II,181,0.60501,0.030368
II,182,0.60836,0.028918
II,183,0.6117,0.02234
II,184,0.61504,0.018203
II,185,0.61838,0.013653
II,186,0.62173,0.011921
II,187,0.62507,0.020076
II,188,0.62841,0.03543
II,189,0.63175,0.045085
II,190,0.6351,0.031649
II,191,0.63844,0.004958
II,192,0.64178,-0.010179
II,193,0.64513,-0.018962
II,194,0.64847,-0.026933
II,195,0.65181,-0.022586
II,196,0.65515,-0.010613
II,197,0.6585,-0.00308
II,198,0.66184,-0.000785
II,199,0.66518,-0.004261
II,200,0.66852,-0.014199
II,201,0.67187,-0.022
II,202,0.67521,-0.025307
II,203,0.67855,-0.029753
II,204,0.68189,-0.031058
II,205,0.68524,-0.025083
II,206,0.68858,-0.014123
II,207,0.69192,-0.002991
II,208,0.69526,0.00399
II,209,0.69861,0.008102
II,210,0.70195,0.011996
II,211,0.70529,0.017897
II,212,0.70864,0.023718
II,213,0.71198,0.026277
II,214,0.71532,0.02309
II,215,0.71866,0.008916
II,216,0.72201,-0.009705
II,217,0.72535,-0.019966
II,218,0.72869,-0.022035
II,219,0.73203,-0.022087
II,220,0.73538,-0.02199
II,221,0.73872,-0.020247
II,222,0.74206,-0.021098
II,223,0.7454,-0.032997
II,224,0.74875,-0.048434
II,225,0.75209,-0.053236
II,226,0.75543,-0.049039
II,227,0.75877,-0.041523
II,228,0.76212,-0.031828
II,229,0.76546,-0.025197
II,230,0.7688,-0.027775
II,231,0.77214,-0.034237
II,232,0.77549,-0.03611
II,233,0.77883,-0.033777
II,234,0.78217,-0.025045
II,235,0.78552,-0.010485
II,236,0.78886,-0.00263
II,237,0.7922,-0.002897
II,238,0.79554,-0.000244
II,239,0.79889,0.005251
II,240,0.80223,0.010966
II,241,0.80557,0.011915
II,242,0.80891,-0.004938
II,243,0.81226,-0.029371
II,244,0.8156,-0.041485
II,245,0.81894,-0.04563
II,246,0.82228,-0.048824
II,247,0.82563,-0.048531
II,248,0.82897,-0.043168
II,249,0.83231,-0.032942
II,250,0.83565,-0.024049
II,251,0.839,-0.023965
II,252,0.84234,-0.028984
II,253,0.84568,-0.037752
II,254,0.84903,-0.049951
II,255,0.85237,-0.054829
II,256,0.85571,-0.053105
II,257,0.85905,-0.049656
II,258,0.8624,-0.043547
II,259,0.86574,-0.045102
II,260,0.86908,-0.05456
II,261,0.87242,-0.05543
II,262,0.87577,-0.046593
II,263,0.87911,-0.034594
II,264,0.88245,-0.017419
II,265,0.88579,-0.003228
II,266,0.88914,-0.003759
II,267,0.89248,-0.013163
II,268,0.89582,-0.02216
II,269,0.89916,-0.026854
II,270,0.90251,-0.028911
II,271,0.90585,-0.039762
II,272,0.90919,-0.058429
II,273,0.91253,-0.068563
II,274,0.91588,-0.068381
II,275,0.91922,-0.064342
II,276,0.92256,-0.056365
II,277,0.92591,-0.050131
II,278,0.92925,-0.051422
II,279,0.93259,-0.054056
II,280,0.93593,-0.050508
II,281,0.93928,-0.041649
II,282,0.94262,-0.029987
II,283,0.94596,-0.015478
II,284,0.9493,-0.001788
II,285,0.95265,0.008209
II,286,0.95599,0.015333
II,287,0.95933,0.021562
II,288,0.96267,0.029314
II,289,0.96602,0.035689
II,290,0.96936,0.04305
II,291,0.9727,0.057247
II,292,0.97604,0.067903
II,293,0.97939,0.063554
II,294,0.98273,0.0458
II,295,0.98607,0.025827
II,296,0.98942,0.01667
II,297,0.99276,0.006761
II,298,0.9961,-0.017818
II,299,0.99944,-0.037648
II,300,1.00279,-0.041956
II,301,1.00613,-0.04724
II,302,1.00947,-0.057504
II,303,1.01281,-0.061133
II,304,1.01616,-0.058923
II,305,1.0195,-0.063503
II,306,1.02284,-0.079741
II,307,1.02618,-0.099887
II,308,1.02953,-0.112791
II,309,1.03287,-0.1165
II,310,1.03621,-0.112868
II,311,1.03955,-0.099173
II,312,1.0429,-0.081986
II,313,1.04624,-0.07302
II,314,1.04958,-0.071824
II,315,1.05292,-0.072179
II,316,1.05627,-0.070825
II,317,1.05961,-0.073643
II,318,1.06295,-0.0918
II,319,1.0663,-0.117501
II,320,1.06964,-0.134791
II,321,1.07298,-0.146806
II,322,1.07632,-0.14118
II,323,1.07967,-0.098408
II,324,1.08301,-0.054047
II,325,1.08635,-0.032981
II,326,1.08969,-0.006767
II,327,1.09304,0.021151
II,328,1.09638,0.041969
II,329,1.09972,0.094861
II,330,1.10306,0.206659
II,331,1.10641,0.370499
II,332,1.10975,0.558034
II,333,1.11309,0.697244
II,334,1.11643,0.687928
II,335,1.11978,0.486184
II,336,1.12312,0.192299
II,337,1.12646,-0.032485
II,338,1.12981,-0.186953
II,339,1.13315,-0.346342
II,340,1.13649,-0.448797
II,341,1.13983,-0.442868
II,342,1.14318,-0.381182
II,343,1.14652,-0.303403
II,344,1.14986,-0.234744
II,345,1.1532,-0.193598
II,346,1.15655,-0.171993
II,347,1.15989,-0.15692
II,348,1.16323,-0.147741
II,349,1.16657,-0.152196
II,350,1.16992,-0.163711
II,351,1.17326,-0.167994
II,352,1.1766,-0.162744
II,353,1.17994,-0.148728
II,354,1.18329,-0.131953
II,355,1.18663,-0.125093
II,356,1.18997,-0.130577
II,357,1.19331,-0.140558
II,358,1.19666,-0.144562
II,359,1.2,-0.141659
II,360,1.20334,-0.141845
II,361,1.20669,-0.141699
II,362,1.21003,-0.132967
II,363,1.21337,-0.121058
II,364,1.21671,-0.110314
II,365,1.22006,-0.106929
II,366,1.2234,-0.115354
II,367,1.22674,-0.124765
II,368,1.23008,-0.134357
II,369,1.23343,-0.146169
II,370,1.23677,-0.14535
II,371,1.24011,-0.135546
II,372,1.24345,-0.130921
II,373,1.2468,-0.128797
II,374,1.25014,-0.131362
II,375,1.25348,-0.138598
II,376,1.25682,-0.137339
II,377,1.26017,-0.123905
II,378,1.26351,-0.107992
II,379,1.26685,-0.100905
II,380,1.27019,-0.105278
II,381,1.27354,-0.111363
II,382,1.27688,-0.111252
II,383,1.28022,-0.106278
II,384,1.28357,-0.098845
II,385,1.28691,-0.093096
II,386,1.29025,-0.09456
II,387,1.29359,-0.104612
II,388,1.29694,-0.117945
II,389,1.30028,-0.124845
II,390,1.30362,-0.125638
II,391,1.30696,-0.128367
II,392,1.31031,-0.129261
II,393,1.31365,-0.12163
II,394,1.31699,-0.109489
II,395,1.32033,-0.097815
II,396,1.32368,-0.090992
II,397,1.32702,-0.091644
II,398,1.33036,-0.094281
II,399,1.3337,-0.094502
II,400,1.33705,-0.090637
II,401,1.34039,-0.081084
II,402,1.34373,-0.071912
II,403,1.34708,-0.066136
II,404,1.35042,-0.056173
II,405,1.35376,-0.043312
II,406,1.3571,-0.034803
II,407,1.36045,-0.029834
II,408,1.36379,-0.02583
II,409,1.36713,-0.020912
II,410,1.37047,-0.01446
II,411,1.37382,-0.002026
II,412,1.37716,0.014585
II,413,1.3805,0.016428
II,414,1.38384,0.001624
II,415,1.38719,-0.012838
II,416,1.39053,-0.020765
II,417,1.39387,-0.020222
II,418,1.39721,-0.01167
II,419,1.40056,0.002411
II,420,1.4039,0.01705
II,421,1.40724,0.015016
II,422,1.41058,-0.001973
II,423,1.41393,-0.009784
II,424,1.41727,-0.012337
II,425,1.42061,-0.022372
II,426,1.42396,-0.026589
II,427,1.4273,-0.018543
II,428,1.43064,-0.009826
II,429,1.43398,-0.01203
II,430,1.43733,-0.024435
II,431,1.44067,-0.032992
II,432,1.44401,-0.034378
II,433,1.44735,-0.034145
II,434,1.4507,-0.027873
II,435,1.45404,-0.017043
II,436,1.45738,-0.017427
II,437,1.46072,-0.030924
II,438,1.46407,-0.040654
II,439,1.46741,-0.0444
II,440,1.47075,-0.053939
II,441,1.47409,-0.068458
II,442,1.47744,-0.074432
II,443,1.48078,-0.066931
II,444,1.48412,-0.059011
II,445,1.48747,-0.056933
II,446,1.49081,-0.053752
II,447,1.49415,-0.047817
II,448,1.49749,-0.041801
II,449,1.50084,-0.036812
II,450,1.50418,-0.030809
II,451,1.50752,-0.022033
II,452,1.51086,-0.013953
II,453,1.51421,-0.014065
II,454,1.51755,-0.024269
II,455,1.52089,-0.036757
II,456,1.52423,-0.047058
II,457,1.52758,-0.05509
II,458,1.53092,-0.057796
II,459,1.53426,-0.054282
II,460,1.5376,-0.047015
II,461,1.54095,-0.033616
II,462,1.54429,-0.018453
II,463,1.54763,-0.02149
II,464,1.55097,-0.042282
II,465,1.55432,-0.056989
II,466,1.55766,-0.05825
II,467,1.561,-0.05407
II,468,1.56435,-0.049592
II,469,1.56769,-0.045279
II,470,1.57103,-0.042515
II,471,1.57437,-0.044492
II,472,1.57772,-0.048965
II,473,1.58106,-0.050876
II,474,1.5844,-0.048781
II,475,1.58774,-0.042187
II,476,1.59109,-0.032077
II,477,1.59443,-0.024108
II,478,1.59777,-0.021409
II,479,1.60111,-0.021158
II,480,1.60446,-0.021699
II,481,1.6078,-0.020622
II,482,1.61114,-0.013511
II,483,1.61448,-0.002505
II,484,1.61783,0.005658
II,485,1.62117,0.008561
II,486,1.62451,0.006661
II,487,1.62786,-0.000777
II,488,1.6312,-0.010976
II,489,1.63454,-0.017579
II,490,1.63788,-0.018799
II,491,1.64123,-0.015661
II,492,1.64457,-0.008497
II,493,1.64791,0.001246
II,494,1.65125,0.010718
II,495,1.6546,0.017133
II,496,1.65794,0.023641
II,497,1.66128,0.026411
II,498,1.66462,0.013935
II,499,1.66797,-0.004554
II,500,1.67131,-0.01535
II,501,1.67465,-0.020828
II,502,1.67799,-0.022843
II,503,1.68134,-0.019704
II,504,1.68468,-0.011819
II,505,1.68802,-0.002551
II,506,1.69136,0.00683
II,507,1.69471,0.016011
II,508,1.69805,0.015591
II,509,1.70139,0.000304
II,510,1.70474,-0.017575
II,511,1.70808,-0.02586
II,512,1.71142,-0.0263
II,513,1.71476,-0.025456
II,514,1.71811,-0.024924
II,515,1.72145,-0.023784
II,516,1.72479,-0.023913
II,517,1.72813,-0.023249
II,518,1.73148,-0.013154
II,519,1.73482,0.002854
II,520,1.73816,0.013508
II,521,1.7415,0.024631
II,522,1.74485,0.039995
II,523,1.74819,0.042321
II,524,1.75153,0.023266
II,525,1.75487,-0.000268
II,526,1.75822,-0.01081
II,527,1.76156,-0.00848
II,528,1.7649,-0.000279
II,529,1.76825,0.01011
II,530,1.77159,0.018015
II,531,1.77493,0.019344
II,532,1.77827,0.014357
II,533,1.78162,0.007134
II,534,1.78496,0.006553
II,535,1.7883,0.009698
II,536,1.79164,0.001638
II,537,1.79499,-0.01354
II,538,1.79833,-0.020968
II,539,1.80167,-0.02059
II,540,1.80501,-0.020051
II,541,1.80836,-0.018854
II,542,1.8117,-0.009196
II,543,1.81504,0.007172
II,544,1.81838,0.018091
II,545,1.82173,0.01716
II,546,1.82507,0.010885
II,547,1.82841,0.011335
II,548,1.83175,0.019759
II,549,1.8351,0.029502
II,550,1.83844,0.038916
II,551,1.84178,0.046663
II,552,1.84513,0.051069
II,553,1.84847,0.048189
II,554,1.85181,0.033466
II,555,1.85515,0.015845
II,556,1.8585,0.005183
II,557,1.86184,-0.0002
II,558,1.86518,-0.001831
II,559,1.86852,0.002074
II,560,1.87187,0.009232
II,561,1.87521,0.009791
II,562,1.87855,0.001027
II,563,1.88189,-0.006186
II,564,1.88524,-0.006816
II,565,1.88858,-0.003215
II,566,1.89192,0.004367
II,567,1.89526,0.013523
II,568,1.89861,0.022775
II,569,1.90195,0.031585
II,570,1.90529,0.033385
II,571,1.90864,0.025818
II,572,1.91198,0.01829
II,573,1.91532,0.017004
II,574,1.91866,0.016876
II,575,1.92201,0.017822
II,576,1.92535,0.029112
II,577,1.92869,0.046849
II,578,1.93203,0.056507
II,579,1.93538,0.058108
II,580,1.93872,0.054261
II,581,1.94206,0.039871
II,582,1.9454,0.023198
II,583,1.94875,0.016422
II,584,1.95209,0.015903
II,585,1.95543,0.017004
II,586,1.95877,0.023545
II,587,1.96212,0.034877
II,588,1.96546,0.042881
II,589,1.9688,0.048204
II,590,1.97214,0.055871
II,591,1.97549,0.062022
II,592,1.97883,0.07594
II,593,1.98217,0.105727
II,594,1.98552,0.128037
II,595,1.98886,0.131121
II,596,1.9922,0.130127
II,597,1.99554,0.130167
II,598,1.99889,0.128593
II,599,2.00223,0.129931
II,600,2.00557,0.132539
II,601,2.00891,0.12291
II,602,2.01226,0.102323
II,603,2.0156,0.086882
II,604,2.01894,0.08067
II,605,2.02228,0.079905
II,606,2.02563,0.081874
II,607,2.02897,0.08675
II,608,2.03231,0.092838
II,609,2.03565,0.092974
II,610,2.039,0.084172
II,611,2.04234,0.06284
II,612,2.04568,0.03674
II,613,2.04903,0.026103
II,614,2.05237,0.026417
II,615,2.05571,0.026605
II,616,2.05905,0.033139
II,617,2.0624,0.041802
II,618,2.06574,0.047101
II,619,2.06908,0.050074
II,620,2.07242,0.03527
II,621,2.07577,0.007738
II,622,2.07911,-0.002003
II,623,2.08245,0.002892
II,624,2.08579,0.005931
II,625,2.08914,0.008468
II,626,2.09248,0.007286
II,627,2.09582,-0.00199
II,628,2.09916,-0.00705
II,629,2.10251,0.010259
II,630,2.10585,0.039359
II,631,2.10919,0.059895
II,632,2.11253,0.08255
II,633,2.11588,0.112628
II,634,2.11922,0.142319
II,635,2.12256,0.175759
II,636,2.12591,0.239349
II,637,2.12925,0.350531
II,638,2.13259,0.446786
II,639,2.13593,0.520818
II,640,2.13928,0.620469
II,641,2.14262,0.606757
II,642,2.14596,0.391489
II,643,2.1493,0.168946
II,644,2.15265,0.038752
II,645,2.15599,-0.106465
II,646,2.15933,-0.254653
II,647,2.16267,-0.317954
II,648,2.16602,-0.316066
II,649,2.16936,-0.266182
II,650,2.1727,-0.169532
II,651,2.17604,-0.080512
II,652,2.17939,-0.029618
II,653,2.18273,-0.002391
II,654,2.18607,0.010196
II,655,2.18942,0.013331
II,656,2.19276,0.009714
II,657,2.1961,-0.001898
II,658,2.19944,-0.011005
II,659,2.20279,-0.012471
II,660,2.20613,-0.016591
II,661,2.20947,-0.023047
II,662,2.21281,-0.026706
II,663,2.21616,-0.028405
II,664,2.2195,-0.020799
II,665,2.22284,-0.00351
II,666,2.22618,0.008566
II,667,2.22953,0.011277
II,668,2.23287,0.007673
II,669,2.23621,-0.00292
II,670,2.23955,-0.012414
II,671,2.2429,-0.013714
II,672,2.24624,-0.00903
II,673,2.24958,-8.4e-05
II,674,2.25292,0.006566
II,675,2.25627,0.00544
II,676,2.25961,0.002886
II,677,2.26295,0.004236
II,678,2.2663,0.006346
II,679,2.26964,0.006273
II,680,2.27298,0.007321
II,681,2.27632,0.010313
II,682,2.27967,0.01188
II,683,2.28301,0.011271
II,684,2.28635,0.003288
II,685,2.28969,-0.011703
II,686,2.29304,-0.022436
II,687,2.29638,-0.027074
II,688,2.29972,-0.023758
II,689,2.30306,-0.010057
II,690,2.30641,0.001988
II,691,2.30975,0.004654
II,692,2.31309,-0.002364
II,693,2.31643,-0.014533
II,694,2.31978,-0.022893
II,695,2.32312,-0.027108
II,696,2.32646,-0.025917
II,697,2.32981,-0.020287
II,698,2.33315,-0.016476
II,699,2.33649,-0.014809
II,700,2.33983,-0.012767
II,701,2.34318,-0.003643
II,702,2.34652,0.012509
II,703,2.34986,0.025295
II,704,2.3532,0.028707
II,705,2.35655,0.021067
II,706,2.35989,0.008257
II,707,2.36323,0.002818
II,708,2.36657,0.009112
II,709,2.36992,0.021486
II,710,2.37326,0.03404
II,711,2.3766,0.0445
II,712,2.37994,0.048363
II,713,2.38329,0.04192
II,714,2.38663,0.034063
II,715,2.38997,0.032593
II,716,2.39331,0.032263
II,717,2.39666,0.02959
III,0,0.0,0.328064
III,1,0.00334,0.327965
III,2,0.00669,0.336123
III,3,0.01003,0.334185
III,4,0.01337,0.299719
III,5,0.01671,0.260989
III,6,0.02006,0.254084
III,7,0.0234,0.264267
III,8,0.02674,0.270947
III,9,0.03008,0.27245
III,10,0.03343,0.264739
III,11,0.03677,0.252137
III,12,0.04011,0.248726
III,13,0.04345,0.258073
III,14,0.0468,0.272568
III,15,0.05014,0.283349
III,16,0.05348,0.284536
III,17,0.05682,0.275899
III,18,0.06017,0.276336
III,19,0.06351,0.303195
III,20,0.06685,0.334587
III,21,0.07019,0.360125
III,22,0.07354,0.403792
III,23,0.07688,0.464385
III,24,0.08022,0.521588
III,25,0.08357,0.575089
III,26,0.08691,0.591372
III,27,0.09025,0.511547
III,28,0.09359,0.393273
III,29,0.09694,0.265513
III,30,0.10028,-0.001807
III,31,0.10362,-0.402453
III,32,0.10696,-0.747668
III,33,0.11031,-0.916966
III,34,0.11365,-0.88465
III,35,0.11699,-0.681732
III,36,0.12033,-0.434269
III,37,0.12368,-0.250031
III,38,0.12702,-0.118356
III,39,0.13036,-0.010921
III,40,0.1337,0.075447
III,41,0.13705,0.145768
III,42,0.14039,0.199149
III,43,0.14373,0.236878
III,44,0.14708,0.265753
III,45,0.15042,0.2856
III,46,0.15376,0.291569
III,47,0.1571,0.287119
III,48,0.16045,0.28588
III,49,0.16379,0.295835
III,50,0.16713,0.307474
III,51,0.17047,0.310394
III,52,0.17382,0.307906
III,53,0.17716,0.304804
III,54,0.1805,0.302643
III,55,0.18384,0.306468
III,56,0.18719,0.314558
III,57,0.19053,0.317641
III,58,0.19387,0.315289
III,59,0.19721,0.312053
III,60,0.20056,0.312761
III,61,0.2039,0.321572
III,62,0.20724,0.330445
III,63,0.21058,0.331853
III,64,0.21393,0.330126
III,65,0.21727,0.32651
III,66,0.22061,0.322056
III,67,0.22396,0.318325
III,68,0.2273,0.313354
III,69,0.23064,0.31272
III,70,0.23398,0.316445
III,71,0.23733,0.319478
III,72,0.24067,0.326457
III,73,0.24401,0.333469
III,74,0.24735,0.335945
III,75,0.2507,0.339999
III,76,0.25404,0.339161
III,77,0.25738,0.327375
III,78,0.26072,0.316885
III,79,0.26407,0.313884
III,80,0.26741,0.315165
III,81,0.27075,0.318706
III,82,0.27409,0.317678
III,83,0.27744,0.312564
III,84,0.28078,0.311648
III,85,0.28412,0.311838
III,86,0.28747,0.308711
III,87,0.29081,0.305508
III,88,0.29415,0.30433
III,89,0.29749,0.307428
III,90,0.30084,0.315914
III,91,0.30418,0.324123
III,92,0.30752,0.32668
III,93,0.31086,0.324946
III,94,0.31421,0.321832
III,95,0.31755,0.319388
III,96,0.32089,0.318551
III,97,0.32423,0.318787
III,98,0.32758,0.321026
III,99,0.33092,0.323951
III,100,0.33426,0.32553
III,101,0.3376,0.327337
III,102,0.34095,0.331044
III,103,0.34429,0.336895
III,104,0.34763,0.344992
III,105,0.35097,0.36066
III,106,0.35432,0.380618
III,107,0.35766,0.38776
III,108,0.361,0.382856
III,109,0.36435,0.377919
III,110,0.36769,0.371761
III,111,0.37103,0.365619
III,112,0.37437,0.366575
III,113,0.37772,0.371361
III,114,0.38106,0.374034
III,115,0.3844,0.373402
III,116,0.38774,0.358318
III,117,0.39109,0.333897
III,118,0.39443,0.326468
III,119,0.39777,0.323357
III,120,0.40111,0.308907
III,121,0.40446,0.298979
III,122,0.4078,0.288342
III,123,0.41114,0.272227
III,124,0.41448,0.262849
III,125,0.41783,0.257947
III,126,0.42117,0.248258
III,127,0.42451,0.231661
III,128,0.42786,0.216334
III,129,0.4312,0.212485
III,130,0.43454,0.220128
III,131,0.43788,0.230138
III,132,0.44123,0.233502
III,133,0.44457,0.22747
III,134,0.44791,0.215599
III,135,0.45125,0.206667
III,136,0.4546,0.211139
III,137,0.45794,0.227831
III,138,0.46128,0.232049
III,139,0.46462,0.222334
III,140,0.46797,0.223273
III,141,0.47131,0.184545
III,142,0.47465,0.206668
III,143,0.47799,0.302692
III,144,0.48134,0.035016
III,145,0.48468,-0.270687
III,146,0.48802,0.008034
III,147,0.49136,0.271991
III,148,0.49471,0.192342
III,149,0.49805,0.185565
III,150,0.50139,0.238963
III,151,0.50474,0.181041
III,152,0.50808,0.190303
III,153,0.51142,0.285626
III,154,0.51476,-0.062199
III,155,0.51811,-0.435788
III,156,0.52145,-0.064742
III,157,0.52479,0.275471
III,158,0.52813,0.168677
III,159,0.53148,0.151599
III,160,0.53482,0.205694
III,161,0.53816,0.204196
III,162,0.5415,0.208055
III,163,0.54485,0.198353
III,164,0.54819,0.182356
III,165,0.55153,0.179101
III,166,0.55487,0.185996
III,167,0.55822,0.194355
III,168,0.56156,0.194121
III,169,0.5649,0.182849
III,170,0.56825,0.170262
III,171,0.57159,0.16726
III,172,0.57493,0.171031
III,173,0.57827,0.173079
III,174,0.58162,0.170106
III,175,0.58496,0.160045
III,176,0.5883,0.149807
III,177,0.59164,0.152639
III,178,0.59499,0.167821
III,179,0.59833,0.180514
III,180,0.60167,0.18064
III,181,0.60501,0.171172
III,182,0.60836,0.158295
III,183,0.6117,0.150375
III,184,0.61504,0.151263
III,185,0.61838,0.149835
III,186,0.62173,0.140694
III,187,0.62507,0.130028
III,188,0.62841,0.121458
III,189,0.63175,0.117956
III,190,0.6351,0.120784
III,191,0.63844,0.127427
III,192,0.64178,0.130813
III,193,0.64513,0.124691
III,194,0.64847,0.114874
III,195,0.65181,0.110925
III,196,0.65515,0.116405
III,197,0.6585,0.125227
III,198,0.66184,0.125333
III,199,0.66518,0.116525
III,200,0.66852,0.1082
III,201,0.67187,0.105418
III,202,0.67521,0.10787
III,203,0.67855,0.110593
III,204,0.68189,0.108529
III,205,0.68524,0.101081
III,206,0.68858,0.092448
III,207,0.69192,0.091629
III,208,0.69526,0.099426
III,209,0.69861,0.103133
III,210,0.70195,0.097619
III,211,0.70529,0.088205
III,212,0.70864,0.076656
III,213,0.71198,0.06802
III,214,0.71532,0.067705
III,215,0.71866,0.069349
III,216,0.72201,0.068907
III,217,0.72535,0.06747
III,218,0.72869,0.062965
III,219,0.73203,0.059223
III,220,0.73538,0.060536
III,221,0.73872,0.061759
III,222,0.74206,0.058888
III,223,0.7454,0.053648
III,224,0.74875,0.045045
III,225,0.75209,0.036135
III,226,0.75543,0.036856
III,227,0.75877,0.043315
III,228,0.76212,0.044588
III,229,0.76546,0.042907
III,230,0.7688,0.040914
III,231,0.77214,0.033069
III,232,0.77549,0.022448
III,233,0.77883,0.018937
III,234,0.78217,0.017746
III,235,0.78552,0.012067
III,236,0.78886,0.006843
III,237,0.7922,0.002017
III,238,0.79554,-0.003533
III,239,0.79889,-0.005468
III,240,0.80223,-0.007256
III,241,0.80557,-0.01263
III,242,0.80891,-0.017293
III,243,0.81226,-0.022253
III,244,0.8156,-0.028781
III,245,0.81894,-0.029804
III,246,0.82228,-0.024633
III,247,0.82563,-0.019648
III,248,0.82897,-0.018346
III,249,0.83231,-0.020284
III,250,0.83565,-0.02099
III,251,0.839,-0.022634
III,252,0.84234,-0.032314
III,253,0.84568,-0.044397
III,254,0.84903,-0.050423
III,255,0.85237,-0.053106
III,256,0.85571,-0.054626
III,257,0.85905,-0.054503
III,258,0.8624,-0.05859
III,259,0.86574,-0.068026
III,260,0.86908,-0.074832
III,261,0.87242,-0.07744
III,262,0.87577,-0.079113
III,263,0.87911,-0.080163
III,264,0.88245,-0.081833
III,265,0.88579,-0.085584
III,266,0.88914,-0.089885
III,267,0.89248,-0.093402
III,268,0.89582,-0.096306
III,269,0.89916,-0.095328
III,270,0.90251,-0.090775
III,271,0.90585,-0.093066
III,272,0.90919,-0.105603
III,273,0.91253,-0.117756
III,274,0.91588,-0.11995
III,275,0.91922,-0.112815
III,276,0.92256,-0.10611
III,277,0.92591,-0.109016
III,278,0.92925,-0.120678
III,279,0.93259,-0.13444
III,280,0.93593,-0.143574
III,281,0.93928,-0.146004
III,282,0.94262,-0.146783
III,283,0.94596,-0.147973
III,284,0.9493,-0.146069
III,285,0.95265,-0.139514
III,286,0.95599,-0.129326
III,287,0.95933,-0.118006
III,288,0.96267,-0.114306
III,289,0.96602,-0.122491
III,290,0.96936,-0.132512
III,291,0.9727,-0.145036
III,292,0.97604,-0.162789
III,293,0.97939,-0.172612
III,294,0.98273,-0.174608
III,295,0.98607,-0.18021
III,296,0.98942,-0.195795
III,297,0.99276,-0.217987
III,298,0.9961,-0.229133
III,299,0.99944,-0.229818
III,300,1.00279,-0.238674
III,301,1.00613,-0.251521
III,302,1.00947,-0.255953
III,303,1.01281,-0.251714
III,304,1.01616,-0.241584
III,305,1.0195,-0.230829
III,306,1.02284,-0.223786
III,307,1.02618,-0.222386
III,308,1.02953,-0.229633
III,309,1.03287,-0.242224
III,310,1.03621,-0.24669
III,311,1.03955,-0.238302
III,312,1.0429,-0.228986
III,313,1.04624,-0.227535
III,314,1.04958,-0.235488
III,315,1.05292,-0.248354
III,316,1.05627,-0.252549
III,317,1.05961,-0.245472
III,318,1.06295,-0.240191
III,319,1.0663,-0.243435
III,320,1.06964,-0.253471
III,321,1.07298,-0.266477
III,322,1.07632,-0.264119
III,323,1.07967,-0.2337
III,324,1.08301,-0.199299
III,325,1.08635,-0.168075
III,326,1.08969,-0.11277
III,327,1.09304,-0.038534
III,328,1.09638,0.026166
III,329,1.09972,0.08039
III,330,1.10306,0.099925
III,331,1.10641,0.022975
III,332,1.10975,-0.114992
III,333,1.11309,-0.264222
III,334,1.11643,-0.541343
III,335,1.11978,-0.988006
III,336,1.12312,-1.362408
III,337,1.12646,-1.483296
III,338,1.12981,-1.423711
III,339,1.13315,-1.252637
III,340,1.13649,-1.026938
III,341,1.13983,-0.837593
III,342,1.14318,-0.688086
III,343,1.14652,-0.563355
III,344,1.14986,-0.477898
III,345,1.1532,-0.42118
III,346,1.15655,-0.372579
III,347,1.15989,-0.334323
III,348,1.16323,-0.316155
III,349,1.16657,-0.312063
III,350,1.16992,-0.31545
III,351,1.17326,-0.323679
III,352,1.1766,-0.326891
III,353,1.17994,-0.315795
III,354,1.18329,-0.297576
III,355,1.18663,-0.28888
III,356,1.18997,-0.29256
III,357,1.19331,-0.30183
III,358,1.19666,-0.309754
III,359,1.2,-0.310497
III,360,1.20334,-0.307519
III,361,1.20669,-0.305756
III,362,1.21003,-0.305755
III,363,1.21337,-0.306799
III,364,1.21671,-0.305877
III,365,1.22006,-0.300522
III,366,1.2234,-0.292559
III,367,1.22674,-0.292283
III,368,1.23008,-0.304422
III,369,1.23343,-0.316782
III,370,1.23677,-0.321052
III,371,1.24011,-0.31814
III,372,1.24345,-0.308648
III,373,1.2468,-0.301551
III,374,1.25014,-0.304449
III,375,1.25348,-0.307542
III,376,1.25682,-0.304238
III,377,1.26017,-0.300353
III,378,1.26351,-0.300964
III,379,1.26685,-0.308968
III,380,1.27019,-0.319354
III,381,1.27354,-0.324344
III,382,1.27688,-0.326149
III,383,1.28022,-0.32436
III,384,1.28357,-0.315632
III,385,1.28691,-0.308126
III,386,1.29025,-0.309575
III,387,1.29359,-0.31443
III,388,1.29694,-0.313738
III,389,1.30028,-0.307884
III,390,1.30362,-0.303776
III,391,1.30696,-0.306348
III,392,1.31031,-0.316029
III,393,1.31365,-0.326184
III,394,1.31699,-0.329938
III,395,1.32033,-0.326277
III,396,1.32368,-0.319872
III,397,1.32702,-0.318778
III,398,1.33036,-0.320163
III,399,1.3337,-0.315695
III,400,1.33705,-0.307731
III,401,1.34039,-0.299365
III,402,1.34373,-0.289344
III,403,1.34708,-0.28246
III,404,1.35042,-0.283432
III,405,1.35376,-0.285087
III,406,1.3571,-0.278972
III,407,1.36045,-0.268498
III,408,1.36379,-0.26173
III,409,1.36713,-0.258293
III,410,1.37047,-0.254984
III,411,1.37382,-0.254654
III,412,1.37716,-0.255987
III,413,1.3805,-0.255241
III,414,1.38384,-0.254684
III,415,1.38719,-0.253281
III,416,1.39053,-0.247997
III,417,1.39387,-0.240087
III,418,1.39721,-0.232272
III,419,1.40056,-0.232873
III,420,1.4039,-0.246727
III,421,1.40724,-0.263321
III,422,1.41058,-0.273741
III,423,1.41393,-0.281373
III,424,1.41727,-0.292338
III,425,1.42061,-0.30517
III,426,1.42396,-0.3139
III,427,1.4273,-0.322431
III,428,1.43064,-0.338093
III,429,1.43398,-0.357808
III,430,1.43733,-0.371151
III,431,1.44067,-0.372758
III,432,1.44401,-0.370417
III,433,1.44735,-0.370657
III,434,1.4507,-0.370486
III,435,1.45404,-0.372249
III,436,1.45738,-0.37948
III,437,1.46072,-0.385137
III,438,1.46407,-0.387246
III,439,1.46741,-0.391628
III,440,1.47075,-0.394998
III,441,1.47409,-0.392227
III,442,1.47744,-0.386847
III,443,1.48078,-0.381507
III,444,1.48412,-0.375844
III,445,1.48747,-0.372545
III,446,1.49081,-0.374392
III,447,1.49415,-0.382041
III,448,1.49749,-0.389166
III,449,1.50084,-0.386855
III,450,1.50418,-0.380261
III,451,1.50752,-0.375634
III,452,1.51086,-0.370493
III,453,1.51421,-0.369039
III,454,1.51755,-0.375212
III,455,1.52089,-0.38416
III,456,1.52423,-0.387816
III,457,1.52758,-0.381671
III,458,1.53092,-0.371552
III,459,1.53426,-0.362972
III,460,1.5376,-0.353636
III,461,1.54095,-0.342912
III,462,1.54429,-0.334572
III,463,1.54763,-0.331445
III,464,1.55097,-0.333447
III,465,1.55432,-0.337803
III,466,1.55766,-0.339376
III,467,1.561,-0.334411
III,468,1.56435,-0.327254
III,469,1.56769,-0.32492
III,470,1.57103,-0.322568
III,471,1.57437,-0.316025
III,472,1.57772,-0.31207
III,473,1.58106,-0.311041
III,474,1.5844,-0.309083
III,475,1.58774,-0.307514
III,476,1.59109,-0.306238
III,477,1.59443,-0.304955
III,478,1.59777,-0.303835
III,479,1.60111,-0.299551
III,480,1.60446,-0.292778
III,481,1.6078,-0.286963
III,482,1.61114,-0.280845
III,483,1.61448,-0.276451
III,484,1.61783,-0.277345
III,485,1.62117,-0.279745
III,486,1.62451,-0.281498
III,487,1.62786,-0.284198
III,488,1.6312,-0.284743
III,489,1.63454,-0.281924
III,490,1.63788,-0.280248
III,491,1.64123,-0.282002
III,492,1.64457,-0.283336
III,493,1.64791,-0.280677
III,494,1.65125,-0.280394
III,495,1.6546,-0.284777
III,496,1.65794,-0.282577
III,497,1.66128,-0.273685
III,498,1.66462,-0.268879
III,499,1.66797,-0.267401
III,500,1.67131,-0.264942
III,501,1.67465,-0.262584
III,502,1.67799,-0.260379
III,503,1.68134,-0.257471
III,504,1.68468,-0.254717
III,505,1.68802,-0.252061
III,506,1.69136,-0.248445
III,507,1.69471,-0.248191
III,508,1.69805,-0.251939
III,509,1.70139,-0.249048
III,510,1.70474,-0.239604
III,511,1.70808,-0.234351
III,512,1.71142,-0.232602
III,513,1.71476,-0.229894
III,514,1.71811,-0.227076
III,515,1.72145,-0.224164
III,516,1.72479,-0.220646
III,517,1.72813,-0.217226
III,518,1.73148,-0.214241
III,519,1.73482,-0.211289
III,520,1.73816,-0.208927
III,521,1.7415,-0.205689
III,522,1.74485,-0.200307
III,523,1.74819,-0.200763
III,524,1.75153,-0.208211
III,525,1.75487,-0.210369
III,526,1.75822,-0.204498
III,527,1.76156,-0.194219
III,528,1.7649,-0.180999
III,529,1.76825,-0.169944
III,530,1.77159,-0.16437
III,531,1.77493,-0.16435
III,532,1.77827,-0.16656
III,533,1.78162,-0.165085
III,534,1.78496,-0.159852
III,535,1.7883,-0.154547
III,536,1.79164,-0.153272
III,537,1.79499,-0.155694
III,538,1.79833,-0.154832
III,539,1.80167,-0.149972
III,540,1.80501,-0.145095
III,541,1.80836,-0.140355
III,542,1.8117,-0.136669
III,543,1.81504,-0.133851
III,544,1.81838,-0.129887
III,545,1.82173,-0.127841
III,546,1.82507,-0.127691
III,547,1.82841,-0.124641
III,548,1.83175,-0.120751
III,549,1.8351,-0.115782
III,550,1.83844,-0.107413
III,551,1.84178,-0.100548
III,552,1.84513,-0.095512
III,553,1.84847,-0.09002
III,554,1.85181,-0.086025
III,555,1.85515,-0.082526
III,556,1.8585,-0.080526
III,557,1.86184,-0.083268
III,558,1.86518,-0.084504
III,559,1.86852,-0.079648
III,560,1.87187,-0.075649
III,561,1.87521,-0.071623
III,562,1.87855,-0.060746
III,563,1.88189,-0.048724
III,564,1.88524,-0.038742
III,565,1.88858,-0.027403
III,566,1.89192,-0.021522
III,567,1.89526,-0.023565
III,568,1.89861,-0.023206
III,569,1.90195,-0.019463
III,570,1.90529,-0.019344
III,571,1.90864,-0.020522
III,572,1.91198,-0.018208
III,573,1.91532,-0.012491
III,574,1.91866,-0.004611
III,575,1.92201,0.005323
III,576,1.92535,0.017741
III,577,1.92869,0.027457
III,578,1.93203,0.029009
III,579,1.93538,0.02682
III,580,1.93872,0.026443
III,581,1.94206,0.02806
III,582,1.9454,0.03321
III,583,1.94875,0.043346
III,584,1.95209,0.053139
III,585,1.95543,0.057614
III,586,1.95877,0.060685
III,587,1.96212,0.066395
III,588,1.96546,0.076663
III,589,1.9688,0.091973
III,590,1.97214,0.10311
III,591,1.97549,0.108134
III,592,1.97883,0.118331
III,593,1.98217,0.132935
III,594,1.98552,0.144461
III,595,1.98886,0.150133
III,596,1.9922,0.147393
III,597,1.99554,0.142078
III,598,1.99889,0.143344
III,599,2.00223,0.15354
III,600,2.00557,0.169404
III,601,2.00891,0.179121
III,602,2.01226,0.174234
III,603,2.0156,0.161232
III,604,2.01894,0.145941
III,605,2.02228,0.13034
III,606,2.02563,0.125352
III,607,2.02897,0.132543
III,608,2.03231,0.13678
III,609,2.03565,0.140321
III,610,2.039,0.158038
III,611,2.04234,0.183669
III,612,2.04568,0.203036
III,613,2.04903,0.213774
III,614,2.05237,0.2152
III,615,2.05571,0.211097
III,616,2.05905,0.212089
III,617,2.0624,0.2212
III,618,2.06574,0.235595
III,619,2.06908,0.249842
III,620,2.07242,0.258367
III,621,2.07577,0.262573
III,622,2.07911,0.268872
III,623,2.08245,0.285568
III,624,2.08579,0.306814
III,625,2.08914,0.316274
III,626,2.09248,0.315379
III,627,2.09582,0.309224
III,628,2.09916,0.308049
III,629,2.10251,0.337517
III,630,2.10585,0.38283
III,631,2.10919,0.421171
III,632,2.11253,0.479502
III,633,2.11588,0.553473
III,634,2.11922,0.609438
III,635,2.12256,0.665789
III,636,2.12591,0.70161
III,637,2.12925,0.63538
III,638,2.13259,0.513654
III,639,2.13593,0.37926
III,640,2.13928,0.09917
III,641,2.14262,-0.329636
III,642,2.14596,-0.694355
III,643,2.1493,-0.858972
III,644,2.15265,-0.831059
III,645,2.15599,-0.647605
III,646,2.15933,-0.385683
III,647,2.16267,-0.163273
III,648,2.16602,-0.016609
III,649,2.16936,0.098841
III,650,2.1727,0.200321
III,651,2.17604,0.275202
III,652,2.17939,0.325431
III,653,2.18273,0.363293
III,654,2.18607,0.393971
III,655,2.18942,0.412583
III,656,2.19276,0.41737
III,657,2.1961,0.414559
III,658,2.19944,0.410303
III,659,2.20279,0.413498
III,660,2.20613,0.426139
III,661,2.20947,0.437133
III,662,2.21281,0.440706
III,663,2.21616,0.438932
III,664,2.2195,0.435586
III,665,2.22284,0.436722
III,666,2.22618,0.441674
III,667,2.22953,0.443284
III,668,2.23287,0.438132
III,669,2.23621,0.429293
III,670,2.23955,0.42632
III,671,2.2429,0.433934
III,672,2.24624,0.439742
III,673,2.24958,0.429897
III,674,2.25292,0.411811
III,675,2.25627,0.400877
III,676,2.25961,0.397725
III,677,2.26295,0.398645
III,678,2.2663,0.401704
III,679,2.26964,0.401203
III,680,2.27298,0.398091
III,681,2.27632,0.396196
III,682,2.27967,0.393639
III,683,2.28301,0.393406
III,684,2.28635,0.396645
III,685,2.28969,0.394106
III,686,2.29304,0.384322
III,687,2.29638,0.372851
III,688,2.29972,0.363005
III,689,2.30306,0.363082
III,690,2.30641,0.371015
III,691,2.30975,0.372192
III,692,2.31309,0.365721
III,693,2.31643,0.358966
III,694,2.31978,0.353985
III,695,2.32312,0.354678
III,696,2.32646,0.363461
III,697,2.32981,0.370253
III,698,2.33315,0.363978
III,699,2.33649,0.35056
III,700,2.33983,0.34343
III,701,2.34318,0.34588
III,702,2.34652,0.350952
III,703,2.34986,0.353006
III,704,2.3532,0.351932
III,705,2.35655,0.347047
III,706,2.35989,0.340961
III,707,2.36323,0.341247
III,708,2.36657,0.34842
III,709,2.36992,0.354842
III,710,2.37326,0.356835
III,711,2.3766,0.357842
III,712,2.37994,0.361053
III,713,2.38329,0.367836
III,714,2.38663,0.376721
III,715,2.38997,0.3797
III,716,2.39331,0.376265
III,717,2.39666,0.375548
aVR,0,0.0,-0.171739
aVR,1,0.00334,-0.176418
aVR,2,0.00669,-0.186014
aVR,3,0.01003,-0.181251
aVR,4,0.01337,-0.169211
aVR,5,0.01671,-0.167821
aVR,6,0.02006,-0.172634
aVR,7,0.0234,-0.178737
aVR,8,0.02674,-0.1923
aVR,9,0.03008,-0.211304
aVR,10,0.03343,-0.22094
aVR,11,0.03677,-0.222179
aVR,12,0.04011,-0.222372
aVR,13,0.04345,-0.212242
aVR,14,0.0468,-0.192805
aVR,15,0.05014,-0.176508
aVR,16,0.05348,-0.163407
aVR,17,0.05682,-0.153524
aVR,18,0.06017,-0.151085
aVR,19,0.06351,-0.151742
aVR,20,0.06685,-0.146338
aVR,21,0.07019,-0.132629
aVR,22,0.07354,-0.120104
aVR,23,0.07688,-0.115817
aVR,24,0.08022,-0.117867
aVR,25,0.08357,-0.124832
aVR,26,0.08691,-0.129573
aVR,27,0.09025,-0.123913
aVR,28,0.09359,-0.111624
aVR,29,0.09694,-0.097624
aVR,30,0.10028,-0.085176
aVR,31,0.10362,-0.079147
aVR,32,0.10696,-0.08059
aVR,33,0.11031,-0.087648
aVR,34,0.11365,-0.095074
aVR,35,0.11699,-0.099106
aVR,36,0.12033,-0.103509
aVR,37,0.12368,-0.108478
aVR,38,0.12702,-0.107358
aVR,39,0.13036,-0.099567
aVR,40,0.1337,-0.086674
aVR,41,0.13705,-0.065542
aVR,42,0.14039,-0.043201
aVR,43,0.14373,-0.032232
aVR,44,0.14708,-0.028901
aVR,45,0.15042,-0.023016
aVR,46,0.15376,-0.016371
aVR,47,0.1571,-0.017516
aVR,48,0.16045,-0.024974
aVR,49,0.16379,-0.027514
aVR,50,0.16713,-0.023138
aVR,51,0.17047,-0.016522
aVR,52,0.17382,-0.010186
aVR,53,0.17716,-0.011416
aVR,54,0.1805,-0.019302
aVR,55,0.18384,-0.021532
aVR,56,0.18719,-0.019224
aVR,57,0.19053,-0.018076
aVR,58,0.19387,-0.014959
aVR,59,0.19721,-0.01276
aVR,60,0.20056,-0.015465
aVR,61,0.2039,-0.017267
aVR,62,0.20724,-0.01208
aVR,63,0.21058,-0.006935
aVR,64,0.21393,-0.013059
aVR,65,0.21727,-0.024551
aVR,66,0.22061,-0.030008
aVR,67,0.22396,-0.029221
aVR,68,0.2273,-0.027488
aVR,69,0.23064,-0.028034
aVR,70,0.23398,-0.028592
aVR,71,0.23733,-0.032682
aVR,72,0.24067,-0.040589
aVR,73,0.24401,-0.035689
aVR,74,0.24735,-0.0154
aVR,75,0.2507,0.004392
aVR,76,0.25404,0.016647
aVR,77,0.25738,0.020088
aVR,78,0.26072,0.011511
aVR,79,0.26407,-0.004265
aVR,80,0.26741,-0.012584
aVR,81,0.27075,-0.009167
aVR,82,0.27409,-0.007106
aVR,83,0.27744,-0.011141
aVR,84,0.28078,-0.011488
aVR,85,0.28412,-0.003879
aVR,86,0.28747,0.010072
aVR,87,0.29081,0.025806
aVR,88,0.29415,0.036334
aVR,89,0.29749,0.040434
aVR,90,0.30084,0.038539
aVR,91,0.30418,0.030009
aVR,92,0.30752,0.023023
aVR,93,0.31086,0.027969
aVR,94,0.31421,0.039083
aVR,95,0.31755,0.043274
aVR,96,0.32089,0.03926
aVR,97,0.32423,0.033084
aVR,98,0.32758,0.030137
aVR,99,0.33092,0.033866
aVR,100,0.33426,0.037377
aVR,101,0.3376,0.031936
aVR,102,0.34095,0.019118
aVR,103,0.34429,0.008294
aVR,104,0.34763,0.015309
aVR,105,0.35097,0.039688
aVR,106,0.35432,0.062912
aVR,107,0.35766,0.072877
aVR,108,0.361,0.066268
aVR,109,0.36435,0.053378
aVR,110,0.36769,0.046522
aVR,111,0.37103,0.046637
aVR,112,0.37437,0.050789
aVR,113,0.37772,0.050933
aVR,114,0.38106,0.046967
aVR,115,0.3844,0.053264
aVR,116,0.38774,0.072688
aVR,117,0.39109,0.091153
aVR,118,0.39443,0.096377
aVR,119,0.39777,0.087266
aVR,120,0.40111,0.073545
aVR,121,0.40446,0.067461
aVR,122,0.4078,0.074937
aVR,123,0.41114,0.088516
aVR,124,0.41448,0.091017
aVR,125,0.41783,0.076617
aVR,126,0.42117,0.056285
aVR,127,0.42451,0.045979
aVR,128,0.42786,0.05791
aVR,129,0.4312,0.086459
aVR,130,0.43454,0.111476
aVR,131,0.43788,0.119491
aVR,132,0.44123,0.107286
aVR,133,0.44457,0.088065
aVR,134,0.44791,0.082534
aVR,135,0.45125,0.084968
aVR,136,0.4546,0.078216
aVR,137,0.45794,0.064041
aVR,138,0.46128,0.053777
aVR,139,0.46462,0.057507
aVR,140,0.46797,0.077834
aVR,141,0.47131,0.106766
aVR,142,0.47465,0.126014
aVR,143,0.47799,0.120247
aVR,144,0.48134,0.100826
aVR,145,0.48468,0.091172
aVR,146,0.48802,0.091584
aVR,147,0.49136,0.094476
aVR,148,0.49471,0.09834
aVR,149,0.49805,0.056095
aVR,150,0.50139,0.020599
aVR,151,0.50474,0.050252
aVR,152,0.50808,-0.112808
aVR,153,0.51142,-0.53817
aVR,154,0.51476,-0.831935
aVR,155,0.51811,-0.645986
aVR,156,0.52145,-0.167508
aVR,157,0.52479,0.038485
aVR,158,0.52813,-0.012113
aVR,159,0.53148,0.019892
aVR,160,0.53482,0.057263
aVR,161,0.53816,0.029464
aVR,162,0.5415,0.002049
aVR,163,0.54485,-0.013531
aVR,164,0.54819,-0.005823
aVR,165,0.55153,0.036734
aVR,166,0.55487,0.096575
aVR,167,0.55822,0.129856
aVR,168,0.56156,0.126519
aVR,169,0.5649,0.123038
aVR,170,0.56825,0.136781
aVR,171,0.57159,0.151907
aVR,172,0.57493,0.154264
aVR,173,0.57827,0.143906
aVR,174,0.58162,0.129117
aVR,175,0.58496,0.122911
aVR,176,0.5883,0.132446
aVR,177,0.59164,0.147588
aVR,178,0.59499,0.156193
aVR,179,0.59833,0.156538
aVR,180,0.60167,0.150815
aVR,181,0.60501,0.147927
aVR,182,0.60836,0.154189
aVR,183,0.6117,0.160458
aVR,184,0.61504,0.158519
aVR,185,0.61838,0.149228
aVR,186,0.62173,0.139872
aVR,187,0.62507,0.142646
aVR,188,0.62841,0.160046
aVR,189,0.63175,0.18148
aVR,190,0.6351,0.194071
aVR,191,0.63844,0.189658
aVR,192,0.64178,0.167658
aVR,193,0.64513,0.132588
aVR,194,0.64847,0.074717
aVR,195,0.65181,-0.046542
aVR,196,0.65515,-0.273076
aVR,197,0.6585,-0.566308
aVR,198,0.66184,-0.796837
aVR,199,0.66518,-0.888649
aVR,200,0.66852,-0.845612
aVR,201,0.67187,-0.667522
aVR,202,0.67521,-0.388853
aVR,203,0.67855,-0.096635
aVR,204,0.68189,0.100172
aVR,205,0.68524,0.177689
aVR,206,0.68858,0.220468
aVR,207,0.69192,0.246663
aVR,208,0.69526,0.234538
aVR,209,0.69861,0.212129
aVR,210,0.70195,0.195096
aVR,211,0.70529,0.186796
aVR,212,0.70864,0.191454
aVR,213,0.71198,0.198529
aVR,214,0.71532,0.202492
aVR,215,0.71866,0.203932
aVR,216,0.72201,0.197475
aVR,217,0.72535,0.190106
aVR,218,0.72869,0.192757
aVR,219,0.73203,0.196249
aVR,220,0.73538,0.193477
aVR,221,0.73872,0.188797
aVR,222,0.74206,0.181222
aVR,223,0.7454,0.174625
aVR,224,0.74875,0.176941
aVR,225,0.75209,0.183576
aVR,226,0.75543,0.186593
aVR,227,0.75877,0.178311
aVR,228,0.76212,0.159323
aVR,229,0.76546,0.148276
aVR,230,0.7688,0.151649
aVR,231,0.77214,0.158551
aVR,232,0.77549,0.16777
aVR,233,0.77883,0.181535
aVR,234,0.78217,0.194491
aVR,235,0.78552,0.202272
aVR,236,0.78886,0.206889
aVR,237,0.7922,0.211158
aVR,238,0.79554,0.212226
aVR,239,0.79889,0.208432
aVR,240,0.80223,0.205237
aVR,241,0.80557,0.20266
aVR,242,0.80891,0.197906
aVR,243,0.81226,0.195815
aVR,244,0.8156,0.190704
aVR,245,0.81894,0.176883
aVR,246,0.82228,0.168122
aVR,247,0.82563,0.16908
aVR,248,0.82897,0.172055
aVR,249,0.83231,0.175196
aVR,250,0.83565,0.176549
aVR,251,0.839,0.173473
aVR,252,0.84234,0.169652
aVR,253,0.84568,0.170647
aVR,254,0.84903,0.169428
aVR,255,0.85237,0.158604
aVR,256,0.85571,0.149188
aVR,257,0.85905,0.146233
aVR,258,0.8624,0.14319
aVR,259,0.86574,0.144199
aVR,260,0.86908,0.151319
aVR,261,0.87242,0.158353
aVR,262,0.87577,0.164488
aVR,263,0.87911,0.173003
aVR,264,0.88245,0.188551
aVR,265,0.88579,0.203006
aVR,266,0.88914,0.205121
aVR,267,0.89248,0.203609
aVR,268,0.89582,0.193614
aVR,269,0.89916,0.16811
aVR,270,0.90251,0.149908
aVR,271,0.90585,0.140757
aVR,272,0.90919,0.126719
aVR,273,0.91253,0.118159
aVR,274,0.91588,0.118492
aVR,275,0.91922,0.117688
aVR,276,0.92256,0.115273
aVR,277,0.92591,0.114419
aVR,278,0.92925,0.115251
aVR,279,0.93259,0.117074
aVR,280,0.93593,0.116645
aVR,281,0.93928,0.115851
aVR,282,0.94262,0.116612
aVR,283,0.94596,0.1077
aVR,284,0.9493,0.094678
aVR,285,0.95265,0.091027
aVR,286,0.95599,0.082888
aVR,287,0.95933,0.068988
aVR,288,0.96267,0.069212
aVR,289,0.96602,0.085564
aVR,290,0.96936,0.102784
aVR,291,0.9727,0.112132
aVR,292,0.97604,0.115799
aVR,293,0.97939,0.1071
aVR,294,0.98273,0.090366
aVR,295,0.98607,0.088982
aVR,296,0.98942,0.103105
aVR,297,0.99276,0.118675
aVR,298,0.9961,0.128664
aVR,299,0.99944,0.127027
aVR,300,1.00279,0.119384
aVR,301,1.00613,0.116434
aVR,302,1.00947,0.117006
aVR,303,1.01281,0.117118
aVR,304,1.01616,0.116781
aVR,305,1.0195,0.116964
aVR,306,1.02284,0.116385
aVR,307,1.02618,0.112983
aVR,308,1.02953,0.109427
aVR,309,1.03287,0.100331
aVR,310,1.03621,0.083362
aVR,311,1.03955,0.076913
aVR,312,1.0429,0.087173
aVR,313,1.04624,0.104148
aVR,314,1.04958,0.12039
aVR,315,1.05292,0.128296
aVR,316,1.05627,0.131386
aVR,317,1.05961,0.135855
aVR,318,1.06295,0.138513
aVR,319,1.0663,0.144887
aVR,320,1.06964,0.162777
aVR,321,1.07298,0.179269
aVR,322,1.07632,0.177799
aVR,323,1.07967,0.164849
aVR,324,1.08301,0.148098
aVR,325,1.08635,0.127388
aVR,326,1.08969,0.114671
aVR,327,1.09304,0.113554
aVR,328,1.09638,0.115732
aVR,329,1.09972,0.121803
aVR,330,1.10306,0.131866
aVR,331,1.10641,0.139188
aVR,332,1.10975,0.137582
aVR,333,1.11309,0.130698
aVR,334,1.11643,0.127272
aVR,335,1.11978,0.129481
aVR,336,1.12312,0.136307
aVR,337,1.12646,0.144762
aVR,338,1.12981,0.153287
aVR,339,1.13315,0.161508
aVR,340,1.13649,0.159594
aVR,341,1.13983,0.143039
aVR,342,1.14318,0.125104
aVR,343,1.14652,0.113724
aVR,344,1.14986,0.106578
aVR,345,1.1532,0.104025
aVR,346,1.15655,0.103993
aVR,347,1.15989,0.103692
aVR,348,1.16323,0.103063
aVR,349,1.16657,0.101801
aVR,350,1.16992,0.103482
aVR,351,1.17326,0.108002
aVR,352,1.1766,0.110475
aVR,353,1.17994,0.108587
aVR,354,1.18329,0.097346
aVR,355,1.18663,0.083697
aVR,356,1.18997,0.079352
aVR,357,1.19331,0.077855
aVR,358,1.19666,0.082953
aVR,359,1.2,0.1006
aVR,360,1.20334,0.11541
aVR,361,1.20669,0.120961
aVR,362,1.21003,0.119719
aVR,363,1.21337,0.112862
aVR,364,1.21671,0.108479
aVR,365,1.22006,0.111596
aVR,366,1.2234,0.116306
aVR,367,1.22674,0.117656
aVR,368,1.23008,0.119005
aVR,369,1.23343,0.111928
aVR,370,1.23677,0.091705
aVR,371,1.24011,0.078233
aVR,372,1.24345,0.077217
aVR,373,1.2468,0.080165
aVR,374,1.25014,0.084762
aVR,375,1.25348,0.08514
aVR,376,1.25682,0.085534
aVR,377,1.26017,0.091397
aVR,378,1.26351,0.091445
aVR,379,1.26685,0.084387
aVR,380,1.27019,0.080622
aVR,381,1.27354,0.082292
aVR,382,1.27688,0.08797
aVR,383,1.28022,0.096852
aVR,384,1.28357,0.106346
aVR,385,1.28691,0.112093
aVR,386,1.29025,0.115965
aVR,387,1.29359,0.119169
aVR,388,1.29694,0.110799
aVR,389,1.30028,0.093025
aVR,390,1.30362,0.083301
aVR,391,1.30696,0.083123
aVR,392,1.31031,0.082696
aVR,393,1.31365,0.080969
aVR,394,1.31699,0.08052
aVR,395,1.32033,0.077351
aVR,396,1.32368,0.071671
aVR,397,1.32702,0.069544
aVR,398,1.33036,0.06877
aVR,399,1.3337,0.06931
aVR,400,1.33705,0.074165
aVR,401,1.34039,0.074416
aVR,402,1.34373,0.065502
aVR,403,1.34708,0.057222
aVR,404,1.35042,0.05584
aVR,405,1.35376,0.063212
aVR,406,1.3571,0.081105
aVR,407,1.36045,0.101834
aVR,408,1.36379,0.110228
aVR,409,1.36713,0.097668
aVR,410,1.37047,0.07894
aVR,411,1.37382,0.067657
aVR,412,1.37716,0.054209
aVR,413,1.3805,0.044188
aVR,414,1.38384,0.049978
aVR,415,1.38719,0.063093
aVR,416,1.39053,0.076118
aVR,417,1.39387,0.086746
aVR,418,1.39721,0.090376
aVR,419,1.40056,0.084484
aVR,420,1.4039,0.071752
aVR,421,1.40724,0.059416
aVR,422,1.41058,0.052118
aVR,423,1.41393,0.048995
aVR,424,1.41727,0.047357
aVR,425,1.42061,0.047706
aVR,426,1.42396,0.047147
aVR,427,1.4273,0.036998
aVR,428,1.43064,0.022647
aVR,429,1.43398,0.015205
aVR,430,1.43733,0.018078
aVR,431,1.44067,0.034229
aVR,432,1.44401,0.057106
aVR,433,1.44735,0.082959
aVR,434,1.4507,0.108374
aVR,435,1.45404,0.112086
aVR,436,1.45738,0.099015
aVR,437,1.46072,0.094317
aVR,438,1.46407,0.084745
aVR,439,1.46741,0.062085
aVR,440,1.47075,0.051457
aVR,441,1.47409,0.052788
aVR,442,1.47744,0.052135
aVR,443,1.48078,0.049445
aVR,444,1.48412,0.042261
aVR,445,1.48747,0.034831
aVR,446,1.49081,0.030531
aVR,447,1.49415,0.022051
aVR,448,1.49749,0.010615
aVR,449,1.50084,0.00139
aVR,450,1.50418,-0.006276
aVR,451,1.50752,-0.015323
aVR,452,1.51086,-0.027027
aVR,453,1.51421,-0.034146
aVR,454,1.51755,-0.040706
aVR,455,1.52089,-0.060927
aVR,456,1.52423,-0.079092
aVR,457,1.52758,-0.076417
aVR,458,1.53092,-0.063718
aVR,459,1.53426,-0.05137
aVR,460,1.5376,-0.043271
aVR,461,1.54095,-0.042499
aVR,462,1.54429,-0.043573
aVR,463,1.54763,-0.040879
aVR,464,1.55097,-0.037553
aVR,465,1.55432,-0.035397
aVR,466,1.55766,-0.030974
aVR,467,1.561,-0.030239
aVR,468,1.56435,-0.038456
aVR,469,1.56769,-0.04675
aVR,470,1.57103,-0.049992
aVR,471,1.57437,-0.049941
aVR,472,1.57772,-0.044206
aVR,473,1.58106,-0.03383
aVR,474,1.5844,-0.026939
aVR,475,1.58774,-0.024304
aVR,476,1.59109,-0.019085
aVR,477,1.59443,-0.011292
aVR,478,1.59777,-0.003596
aVR,479,1.60111,0.004843
aVR,480,1.60446,0.01389
aVR,481,1.6078,0.023231
aVR,482,1.61114,0.029163
aVR,483,1.61448,0.028299
aVR,484,1.61783,0.027822
aVR,485,1.62117,0.034702
aVR,486,1.62451,0.046261
aVR,487,1.62786,0.052156
aVR,488,1.6312,0.042632
aVR,489,1.63454,0.024964
aVR,490,1.63788,0.011999
aVR,491,1.64123,0.006016
aVR,492,1.64457,0.004639
aVR,493,1.64791,0.003297
aVR,494,1.65125,0.004997
aVR,495,1.6546,0.008917
aVR,496,1.65794,0.006671
aVR,497,1.66128,0.007135
aVR,498,1.66462,-0.01608
aVR,499,1.66797,-0.137233
aVR,500,1.67131,-0.360874
aVR,501,1.67465,-0.622492
aVR,502,1.67799,-0.870838
aVR,503,1.68134,-1.050376
aVR,504,1.68468,-1.105628
aVR,505,1.68802,-0.993086
aVR,506,1.69136,-0.738273
aVR,507,1.69471,-0.447491
aVR,508,1.69805,-0.183781
aVR,509,1.70139,-0.007973
aVR,510,1.70474,0.046134
aVR,511,1.70808,0.04807
aVR,512,1.71142,0.034604
aVR,513,1.71476,0.008127
aVR,514,1.71811,-0.008558
aVR,515,1.72145,-0.011031
aVR,516,1.72479,-0.00473
aVR,517,1.72813,0.003376
aVR,518,1.73148,0.015304
aVR,519,1.73482,0.033777
aVR,520,1.73816,0.044062
aVR,521,1.7415,0.045481
aVR,522,1.74485,0.043211
aVR,523,1.74819,0.031023
aVR,524,1.75153,0.019482
aVR,525,1.75487,0.019283
aVR,526,1.75822,0.018011
aVR,527,1.76156,0.006569
aVR,528,1.7649,-0.004228
aVR,529,1.76825,-0.012316
aVR,530,1.77159,-0.02621
aVR,531,1.77493,-0.03577
aVR,532,1.77827,-0.036439
aVR,533,1.78162,-0.032164
aVR,534,1.78496,-0.019508
aVR,535,1.7883,-0.006752
aVR,536,1.79164,-0.001665
aVR,537,1.79499,-0.002051
aVR,538,1.79833,-0.004509
aVR,539,1.80167,-0.002147
aVR,540,1.80501,0.003936
aVR,541,1.80836,0.005851
aVR,542,1.8117,0.004555
aVR,543,1.81504,0.000654
aVR,544,1.81838,-0.005958
aVR,545,1.82173,-0.008576
aVR,546,1.82507,-0.007123
aVR,547,1.82841,-0.007584
aVR,548,1.83175,-0.009603
aVR,549,1.8351,-0.008981
aVR,550,1.83844,-0.004938
aVR,551,1.84178,0.000352
aVR,552,1.84513,0.002728
aVR,553,1.84847,0.000686
aVR,554,1.85181,-0.006234
aVR,555,1.85515,-0.019121
aVR,556,1.8585,-0.029373
aVR,557,1.86184,-0.038739
aVR,558,1.86518,-0.054222
aVR,559,1.86852,-0.062769
aVR,560,1.87187,-0.059766
aVR,561,1.87521,-0.053175
aVR,562,1.87855,-0.046673
aVR,563,1.88189,-0.044145
aVR,564,1.88524,-0.047139
aVR,565,1.88858,-0.053099
aVR,566,1.89192,-0.057001
aVR,567,1.89526,-0.055948
aVR,568,1.89861,-0.050295
aVR,569,1.90195,-0.038942
aVR,570,1.90529,-0.023655
aVR,571,1.90864,-0.013313
aVR,572,1.91198,-0.015936
aVR,573,1.91532,-0.029356
aVR,574,1.91866,-0.043433
aVR,575,1.92201,-0.053034
aVR,576,1.92535,-0.061162
aVR,577,1.92869,-0.070589
aVR,578,1.93203,-0.081223
aVR,579,1.93538,-0.089583
aVR,580,1.93872,-0.092678
aVR,581,1.94206,-0.090296
aVR,582,1.9454,-0.082923
aVR,583,1.94875,-0.074276
aVR,584,1.95209,-0.073589
aVR,585,1.95543,-0.089018
aVR,586,1.95877,-0.107418
aVR,587,1.96212,-0.116015
aVR,588,1.96546,-0.12951
aVR,589,1.9688,-0.146209
aVR,590,1.97214,-0.150432
aVR,591,1.97549,-0.150674
aVR,592,1.97883,-0.150081
aVR,593,1.98217,-0.142662
aVR,594,1.98552,-0.134292
aVR,595,1.98886,-0.121617
aVR,596,1.9922,-0.101608
aVR,597,1.99554,-0.090473
aVR,598,1.99889,-0.093018
aVR,599,2.00223,-0.099987
aVR,600,2.00557,-0.111509
aVR,601,2.00891,-0.124896
aVR,602,2.01226,-0.130604
aVR,603,2.0156,-0.128278
aVR,604,2.01894,-0.123397
aVR,605,2.02228,-0.120434
aVR,606,2.02563,-0.122725
aVR,607,2.02897,-0.128716
aVR,608,2.03231,-0.132884
aVR,609,2.03565,-0.131203
aVR,610,2.039,-0.126139
aVR,611,2.04234,-0.123845
aVR,612,2.04568,-0.124129
aVR,613,2.04903,-0.124191
aVR,614,2.05237,-0.125445
aVR,615,2.05571,-0.126608
aVR,616,2.05905,-0.12687
aVR,617,2.0624,-0.129116
aVR,618,2.06574,-0.123746
aVR,619,2.06908,-0.10218
aVR,620,2.07242,-0.083046
aVR,621,2.07577,-0.077675
aVR,622,2.07911,-0.07284
aVR,623,2.08245,-0.073878
aVR,624,2.08579,-0.088228
aVR,625,2.08914,-0.097145
aVR,626,2.09248,-0.093922
aVR,627,2.09582,-0.086993
aVR,628,2.09916,-0.080523
aVR,629,2.10251,-0.077551
aVR,630,2.10585,-0.079603
aVR,631,2.10919,-0.08763
aVR,632,2.11253,-0.096336
aVR,633,2.11588,-0.099811
aVR,634,2.11922,-0.098156
aVR,635,2.12256,-0.090081
aVR,636,2.12591,-0.081316
aVR,637,2.12925,-0.081169
aVR,638,2.13259,-0.089667
aVR,639,2.13593,-0.103335
aVR,640,2.13928,-0.114738
aVR,641,2.14262,-0.12297
aVR,642,2.14596,-0.13336
aVR,643,2.1493,-0.136628
aVR,644,2.15265,-0.129431
aVR,645,2.15599,-0.119294
aVR,646,2.15933,-0.103404
aVR,647,2.16267,-0.085252
aVR,648,2.16602,-0.076543
aVR,649,2.16936,-0.075615
aVR,650,2.1727,-0.077495
aVR,651,2.17604,-0.087668
aVR,652,2.17939,-0.104066
aVR,653,2.18273,-0.113546
aVR,654,2.18607,-0.113781
aVR,655,2.18942,-0.112728
aVR,656,2.19276,-0.115845
aVR,657,2.1961,-0.122612
aVR,658,2.19944,-0.126051
aVR,659,2.20279,-0.121482
aVR,660,2.20613,-0.117966
aVR,661,2.20947,-0.122039
aVR,662,2.21281,-0.125094
aVR,663,2.21616,-0.127314
aVR,664,2.2195,-0.133019
aVR,665,2.22284,-0.13537
aVR,666,2.22618,-0.134088
aVR,667,2.22953,-0.133786
aVR,668,2.23287,-0.136256
aVR,669,2.23621,-0.144323
aVR,670,2.23955,-0.154745
aVR,671,2.2429,-0.161122
aVR,672,2.24624,-0.163837
aVR,673,2.24958,-0.160429
aVR,674,2.25292,-0.146107
aVR,675,2.25627,-0.129447
aVR,676,2.25961,-0.118621
aVR,677,2.26295,-0.111859
aVR,678,2.2663,-0.109572
aVR,679,2.26964,-0.110595
aVR,680,2.27298,-0.111574
aVR,681,2.27632,-0.1122
aVR,682,2.27967,-0.112597
aVR,683,2.28301,-0.112384
aVR,684,2.28635,-0.110936
aVR,685,2.28969,-0.112799
aVR,686,2.29304,-0.121992
aVR,687,2.29638,-0.13017
aVR,688,2.29972,-0.133761
aVR,689,2.30306,-0.139043
aVR,690,2.30641,-0.140476
aVR,691,2.30975,-0.130324
aVR,692,2.31309,-0.116145
aVR,693,2.31643,-0.105451
aVR,694,2.31978,-0.098907
aVR,695,2.32312,-0.098551
aVR,696,2.32646,-0.104098
aVR,697,2.32981,-0.118608
aVR,698,2.33315,-0.140666
aVR,699,2.33649,-0.153315
aVR,700,2.33983,-0.154203
aVR,701,2.34318,-0.152354
aVR,702,2.34652,-0.142876
aVR,703,2.34986,-0.127836
aVR,704,2.3532,-0.11733
aVR,705,2.35655,-0.111297
aVR,706,2.35989,-0.111476
aVR,707,2.36323,-0.119678
aVR,708,2.36657,-0.127326
aVR,709,2.36992,-0.129636
aVR,710,2.37326,-0.128448
aVR,711,2.3766,-0.122966
aVR,712,2.37994,-0.112817
aVR,713,2.38329,-0.104369
aVR,714,2.38663,-0.105427
aVR,715,2.38997,-0.110411
aVR,716,2.39331,-0.116741
aVR,717,2.39666,-0.13335
aVL,0,0.0,-0.318284
aVL,1,0.00334,0.60737
aVL,2,0.00669,0.702921
aVL,3,0.01003,0.586573
aVL,4,0.01337,0.645733
aVL,5,0.01671,0.646173
aVL,6,0.02006,0.599762
aVL,7,0.0234,0.585127
aVL,8,0.02674,0.593252
aVL,9,0.03008,0.620691
aVL,10,0.03343,0.646263
aVL,11,0.03677,0.647487
aVL,12,0.04011,0.626417
aVL,13,0.04345,0.607161
aVL,14,0.0468,0.608336
aVL,15,0.05014,0.625503
aVL,16,0.05348,0.639161
aVL,17,0.05682,0.63066
aVL,18,0.06017,0.605312
aVL,19,0.06351,0.585272
aVL,20,0.06685,0.579842
aVL,21,0.07019,0.586615
aVL,22,0.07354,0.595548
aVL,23,0.07688,0.591474
aVL,24,0.08022,0.571102
aVL,25,0.08357,0.549
aVL,26,0.08691,0.543495
aVL,27,0.09025,0.552817
aVL,28,0.09359,0.558409
aVL,29,0.09694,0.545973
aVL,30,0.10028,0.517101
aVL,31,0.10362,0.49265
aVL,32,0.10696,0.487971
aVL,33,0.11031,0.49746
aVL,34,0.11365,0.508057
aVL,35,0.11699,0.505375
aVL,36,0.12033,0.487963
aVL,37,0.12368,0.471863
aVL,38,0.12702,0.469556
aVL,39,0.13036,0.477816
aVL,40,0.1337,0.473854
aVL,41,0.13705,0.442113
aVL,42,0.14039,0.403659
aVL,43,0.14373,0.383078
aVL,44,0.14708,0.379757
aVL,45,0.15042,0.385526
aVL,46,0.15376,0.393622
aVL,47,0.1571,0.391733
aVL,48,0.16045,0.374812
aVL,49,0.16379,0.35739
aVL,50,0.16713,0.350378
aVL,51,0.17047,0.350913
aVL,52,0.17382,0.353007
aVL,53,0.17716,0.346225
aVL,54,0.1805,0.328602
aVL,55,0.18384,0.31246
aVL,56,0.18719,0.306899
aVL,57,0.19053,0.314264
aVL,58,0.19387,0.324467
aVL,59,0.19721,0.316868
aVL,60,0.20056,0.293789
aVL,61,0.2039,0.276681
aVL,62,0.20724,0.272421
aVL,63,0.21058,0.278788
aVL,64,0.21393,0.287126
aVL,65,0.21727,0.281844
aVL,66,0.22061,0.266012
aVL,67,0.22396,0.256498
aVL,68,0.2273,0.25646
aVL,69,0.23064,0.259647
aVL,70,0.23398,0.263169
aVL,71,0.23733,0.261966
aVL,72,0.24067,0.250829
aVL,73,0.24401,0.234606
aVL,74,0.24735,0.22486
aVL,75,0.2507,0.225374
aVL,76,0.25404,0.226734
aVL,77,0.25738,0.222047
aVL,78,0.26072,0.213448
aVL,79,0.26407,0.206371
aVL,80,0.26741,0.206066
aVL,81,0.27075,0.212548
aVL,82,0.27409,0.219438
aVL,83,0.27744,0.213403
aVL,84,0.28078,0.192072
aVL,85,0.28412,0.173487
aVL,86,0.28747,0.166017
aVL,87,0.29081,0.162667
aVL,88,0.29415,0.159837
aVL,89,0.29749,0.155778
aVL,90,0.30084,0.151268
aVL,91,0.30418,0.151088
aVL,92,0.30752,0.154168
aVL,93,0.31086,0.156547
aVL,94,0.31421,0.157073
aVL,95,0.31755,0.148735
aVL,96,0.32089,0.131363
aVL,97,0.32423,0.121408
aVL,98,0.32758,0.123259
aVL,99,0.33092,0.128621
aVL,100,0.33426,0.133072
aVL,101,0.3376,0.129957
aVL,102,0.34095,0.118718
aVL,103,0.34429,0.109284
aVL,104,0.34763,0.106568
aVL,105,0.35097,0.104487
aVL,106,0.35432,0.098603
aVL,107,0.35766,0.090736
aVL,108,0.361,0.081272
aVL,109,0.36435,0.074886
aVL,110,0.36769,0.075613
aVL,111,0.37103,0.080672
aVL,112,0.37437,0.085546
aVL,113,0.37772,0.081344
aVL,114,0.38106,0.065056
aVL,115,0.3844,0.044158
aVL,116,0.38774,0.027934
aVL,117,0.39109,0.022404
aVL,118,0.39443,0.027254
aVL,119,0.39777,0.036237
aVL,120,0.40111,0.037766
aVL,121,0.40446,0.030523
aVL,122,0.4078,0.025881
aVL,123,0.41114,0.026307
aVL,124,0.41448,0.026012
aVL,125,0.41783,0.021283
aVL,126,0.42117,0.013253
aVL,127,0.42451,0.006487
aVL,128,0.42786,0.000493
aVL,129,0.4312,-0.005451
aVL,130,0.43454,-0.007881
aVL,131,0.43788,-0.010917
aVL,132,0.44123,-0.019163
aVL,133,0.44457,-0.025325
aVL,134,0.44791,-0.022114
aVL,135,0.45125,-0.011118
aVL,136,0.4546,0.00385
aVL,137,0.45794,0.013532
aVL,138,0.46128,-0.001228
aVL,139,0.46462,-0.035028
aVL,140,0.46797,-0.053335
aVL,141,0.47131,-0.052008
aVL,142,0.47465,-0.051796
aVL,143,0.47799,-0.053294
aVL,144,0.48134,-0.054126
aVL,145,0.48468,-0.058917
aVL,146,0.48802,-0.063989
aVL,147,0.49136,-0.064555
aVL,148,0.49471,-0.06112
aVL,149,0.49805,-0.058853
aVL,150,0.50139,-0.060789
aVL,151,0.50474,-0.063032
aVL,152,0.50808,-0.065531
aVL,153,0.51142,-0.065547
aVL,154,0.51476,-0.054573
aVL,155,0.51811,-0.040089
aVL,156,0.52145,-0.037095
aVL,157,0.52479,-0.043128
aVL,158,0.52813,-0.050639
aVL,159,0.53148,-0.056033
aVL,160,0.53482,-0.054853
aVL,161,0.53816,-0.049658
aVL,162,0.5415,-0.040759
aVL,163,0.54485,-0.029916
aVL,164,0.54819,-0.028118
aVL,165,0.55153,-0.039434
aVL,166,0.55487,-0.064696
aVL,167,0.55822,-0.095122
aVL,168,0.56156,-0.115954
aVL,169,0.5649,-0.128516
aVL,170,0.56825,-0.135139
aVL,171,0.57159,-0.135012
aVL,172,0.57493,-0.130001
aVL,173,0.57827,-0.121945
aVL,174,0.58162,-0.11947
aVL,175,0.58496,-0.125255
aVL,176,0.5883,-0.132906
aVL,177,0.59164,-0.139947
aVL,178,0.59499,-0.143163
aVL,179,0.59833,-0.146049
aVL,180,0.60167,-0.156206
aVL,181,0.60501,-0.167049
aVL,182,0.60836,-0.171691
aVL,183,0.6117,-0.170882
aVL,184,0.61504,-0.165298
aVL,185,0.61838,-0.157461
aVL,186,0.62173,-0.156614
aVL,187,0.62507,-0.176772
aVL,188,0.62841,-0.210039
aVL,189,0.63175,-0.252354
aVL,190,0.6351,-0.317744
aVL,191,0.63844,-0.372997
aVL,192,0.64178,-0.406798
aVL,193,0.64513,-0.424242
aVL,194,0.64847,-0.364077
aVL,195,0.65181,-0.262081
aVL,196,0.65515,-0.137729
aVL,197,0.6585,0.146113
aVL,198,0.66184,0.573328
aVL,199,0.66518,0.960512
aVL,200,0.66852,1.183756
aVL,201,0.67187,1.219864
aVL,202,0.67521,1.078267
aVL,203,0.67855,0.77864
aVL,204,0.68189,0.450399
aVL,205,0.68524,0.226567
aVL,206,0.68858,0.099356
aVL,207,0.69192,0.019196
aVL,208,0.69526,-0.037422
aVL,209,0.69861,-0.08626
aVL,210,0.70195,-0.135766
aVL,211,0.70529,-0.175378
aVL,212,0.70864,-0.189935
aVL,213,0.71198,-0.193007
aVL,214,0.71532,-0.199819
aVL,215,0.71866,-0.20208
aVL,216,0.72201,-0.202009
aVL,217,0.72535,-0.210362
aVL,218,0.72869,-0.220906
aVL,219,0.73203,-0.22276
aVL,220,0.73538,-0.215682
aVL,221,0.73872,-0.20765
aVL,222,0.74206,-0.207056
aVL,223,0.7454,-0.215629
aVL,224,0.74875,-0.224845
aVL,225,0.75209,-0.225675
aVL,226,0.75543,-0.222102
aVL,227,0.75877,-0.218667
aVL,228,0.76212,-0.213215
aVL,229,0.76546,-0.20944
aVL,230,0.7688,-0.210239
aVL,231,0.77214,-0.212072
aVL,232,0.77549,-0.213815
aVL,233,0.77883,-0.216904
aVL,234,0.78217,-0.221935
aVL,235,0.78552,-0.232406
aVL,236,0.78886,-0.246393
aVL,237,0.7922,-0.248318
aVL,238,0.79554,-0.235705
aVL,239,0.79889,-0.226271
aVL,240,0.80223,-0.226731
aVL,241,0.80557,-0.230589
aVL,242,0.80891,-0.232737
aVL,243,0.81226,-0.229156
aVL,244,0.8156,-0.221805
aVL,245,0.81894,-0.215963
aVL,246,0.82228,-0.21242
aVL,247,0.82563,-0.212576
aVL,248,0.82897,-0.214431
aVL,249,0.83231,-0.213314
aVL,250,0.83565,-0.210899
aVL,251,0.839,-0.209856
aVL,252,0.84234,-0.210805
aVL,253,0.84568,-0.213288
aVL,254,0.84903,-0.212723
aVL,255,0.85237,-0.204425
aVL,256,0.85571,-0.191328
aVL,257,0.85905,-0.184437
aVL,258,0.8624,-0.191208
aVL,259,0.86574,-0.203658
aVL,260,0.86908,-0.210296
aVL,261,0.87242,-0.212799
aVL,262,0.87577,-0.215533
aVL,263,0.87911,-0.218211
aVL,264,0.88245,-0.225418
aVL,265,0.88579,-0.236692
aVL,266,0.88914,-0.242996
aVL,267,0.89248,-0.246367
aVL,268,0.89582,-0.248197
aVL,269,0.89916,-0.241573
aVL,270,0.90251,-0.233877
aVL,271,0.90585,-0.23055
aVL,272,0.90919,-0.225783
aVL,273,0.91253,-0.222184
aVL,274,0.91588,-0.220107
aVL,275,0.91922,-0.221347
aVL,276,0.92256,-0.233419
aVL,277,0.92591,-0.245789
aVL,278,0.92925,-0.247339
aVL,279,0.93259,-0.24564
aVL,280,0.93593,-0.242213
aVL,281,0.93928,-0.235293
aVL,282,0.94262,-0.233331
aVL,283,0.94596,-0.233785
aVL,284,0.9493,-0.223597
aVL,285,0.95265,-0.205751
aVL,286,0.95599,-0.194888
aVL,287,0.95933,-0.193544
aVL,288,0.96267,-0.193751
aVL,289,0.96602,-0.193195
aVL,290,0.96936,-0.192958
aVL,291,0.9727,-0.18988
aVL,292,0.97604,-0.182075
aVL,293,0.97939,-0.169354
aVL,294,0.98273,-0.153603
aVL,295,0.98607,-0.143753
aVL,296,0.98942,-0.141807
aVL,297,0.99276,-0.14088
aVL,298,0.9961,-0.140216
aVL,299,0.99944,-0.136956
aVL,300,1.00279,-0.129829
aVL,301,1.00613,-0.129239
aVL,302,1.00947,-0.134267
aVL,303,1.01281,-0.135779
aVL,304,1.01616,-0.137156
aVL,305,1.0195,-0.140122
aVL,306,1.02284,-0.141398
aVL,307,1.02618,-0.138281
aVL,308,1.02953,-0.128952
aVL,309,1.03287,-0.120497
aVL,310,1.03621,-0.114634
aVL,311,1.03955,-0.109252
aVL,312,1.0429,-0.115361
aVL,313,1.04624,-0.131438
aVL,314,1.04958,-0.139713
aVL,315,1.05292,-0.137926
aVL,316,1.05627,-0.13647
aVL,317,1.05961,-0.13596
aVL,318,1.06295,-0.13222
aVL,319,1.0663,-0.137182
aVL,320,1.06964,-0.155354
aVL,321,1.07298,-0.166278
aVL,322,1.07632,-0.165172
aVL,323,1.07967,-0.16154
aVL,324,1.08301,-0.153833
aVL,325,1.08635,-0.143182
aVL,326,1.08969,-0.132067
aVL,327,1.09304,-0.122606
aVL,328,1.09638,-0.121589
aVL,329,1.09972,-0.12621
aVL,330,1.10306,-0.129623
aVL,331,1.10641,-0.132137
aVL,332,1.10975,-0.135517
aVL,333,1.11309,-0.139185
aVL,334,1.11643,-0.138906
aVL,335,1.11978,-0.13821
aVL,336,1.12312,-0.144927
aVL,337,1.12646,-0.152173
aVL,338,1.12981,-0.151794
aVL,339,1.13315,-0.149248
aVL,340,1.13649,-0.148916
aVL,341,1.13983,-0.144943
aVL,342,1.14318,-0.137691
aVL,343,1.14652,-0.135097
aVL,344,1.14986,-0.132301
aVL,345,1.1532,-0.124865
aVL,346,1.15655,-0.120684
aVL,347,1.15989,-0.119997
aVL,348,1.16323,-0.118736
aVL,349,1.16657,-0.117409
aVL,350,1.16992,-0.115166
aVL,351,1.17326,-0.115709
aVL,352,1.1766,-0.120603
aVL,353,1.17994,-0.119514
aVL,354,1.18329,-0.110081
aVL,355,1.18663,-0.099476
aVL,356,1.18997,-0.088022
aVL,357,1.19331,-0.08082
aVL,358,1.19666,-0.084442
aVL,359,1.2,-0.093188
aVL,360,1.20334,-0.101762
aVL,361,1.20669,-0.105424
aVL,362,1.21003,-0.100758
aVL,363,1.21337,-0.093527
aVL,364,1.21671,-0.088147
aVL,365,1.22006,-0.081976
aVL,366,1.2234,-0.074405
aVL,367,1.22674,-0.073275
aVL,368,1.23008,-0.078394
aVL,369,1.23343,-0.079204
aVL,370,1.23677,-0.076317
aVL,371,1.24011,-0.074809
aVL,372,1.24345,-0.073604
aVL,373,1.2468,-0.072114
aVL,374,1.25014,-0.070828
aVL,375,1.25348,-0.069356
aVL,376,1.25682,-0.067168
aVL,377,1.26017,-0.066252
aVL,378,1.26351,-0.068897
aVL,379,1.26685,-0.071702
aVL,380,1.27019,-0.071074
aVL,381,1.27354,-0.068897
aVL,382,1.27688,-0.067502
aVL,383,1.28022,-0.065972
aVL,384,1.28357,-0.063632
aVL,385,1.28691,-0.064712
aVL,386,1.29025,-0.069325
aVL,387,1.29359,-0.069837
aVL,388,1.29694,-0.06717
aVL,389,1.30028,-0.066542
aVL,390,1.30362,-0.063123
aVL,391,1.30696,-0.055984
aVL,392,1.31031,-0.052561
aVL,393,1.31365,-0.051721
aVL,394,1.31699,-0.049943
aVL,395,1.32033,-0.049108
aVL,396,1.32368,-0.045666
aVL,397,1.32702,-0.038669
aVL,398,1.33036,-0.035239
aVL,399,1.3337,-0.034511
aVL,400,1.33705,-0.032643
aVL,401,1.34039,-0.031923
aVL,402,1.34373,-0.02888
aVL,403,1.34708,-0.020639
aVL,404,1.35042,-0.019057
aVL,405,1.35376,-0.026961
aVL,406,1.3571,-0.030417
aVL,407,1.36045,-0.036798
aVL,408,1.36379,-0.054097
aVL,409,1.36713,-0.056493
aVL,410,1.37047,-0.038525
aVL,411,1.37382,-0.026887
aVL,412,1.37716,-0.025616
aVL,413,1.3805,-0.023793
aVL,414,1.38384,-0.024793
aVL,415,1.38719,-0.029435
aVL,416,1.39053,-0.030505
aVL,417,1.39387,-0.029043
aVL,418,1.39721,-0.025384
aVL,419,1.40056,-0.018628
aVL,420,1.4039,-0.015225
aVL,421,1.40724,-0.015165
aVL,422,1.41058,-0.013834
aVL,423,1.41393,-0.012237
aVL,424,1.41727,-0.011032
aVL,425,1.42061,-0.009823
aVL,426,1.42396,-0.009681
aVL,427,1.4273,-0.007759
aVL,428,1.43064,0.001839
aVL,429,1.43398,0.012771
aVL,430,1.43733,0.011277
aVL,431,1.44067,0.000277
aVL,432,1.44401,-0.015575
aVL,433,1.44735,-0.035426
aVL,434,1.4507,-0.043418
aVL,435,1.45404,-0.037959
aVL,436,1.45738,-0.029507
aVL,437,1.46072,-0.016774
aVL,438,1.46407,-0.006661
aVL,439,1.46741,-0.002134
aVL,440,1.47075,0.001627
aVL,441,1.47409,0.001361
aVL,442,1.47744,-0.002954
aVL,443,1.48078,-0.008229
aVL,444,1.48412,-0.008994
aVL,445,1.48747,-0.000437
aVL,446,1.49081,0.011686
aVL,447,1.49415,0.019564
aVL,448,1.49749,0.024549
aVL,449,1.50084,0.029712
aVL,450,1.50418,0.03177
aVL,451,1.50752,0.031582
aVL,452,1.51086,0.032917
aVL,453,1.51421,0.035128
aVL,454,1.51755,0.037013
aVL,455,1.52089,0.034408
aVL,456,1.52423,0.028143
aVL,457,1.52758,0.026103
aVL,458,1.53092,0.028269
aVL,459,1.53426,0.031963
aVL,460,1.5376,0.038831
aVL,461,1.54095,0.051152
aVL,462,1.54429,0.064093
aVL,463,1.54763,0.065585
aVL,464,1.55097,0.060161
aVL,465,1.55432,0.060346
aVL,466,1.55766,0.061796
aVL,467,1.561,0.062342
aVL,468,1.56435,0.067884
aVL,469,1.56769,0.078156
aVL,470,1.57103,0.08895
aVL,471,1.57437,0.089764
aVL,472,1.57772,0.074652
aVL,473,1.58106,0.055927
aVL,474,1.5844,0.043602
aVL,475,1.58774,0.037081
aVL,476,1.59109,0.037102
aVL,477,1.59443,0.041302
aVL,478,1.59777,0.040649
aVL,479,1.60111,0.030762
aVL,480,1.60446,0.020809
aVL,481,1.6078,0.019346
aVL,482,1.61114,0.022118
aVL,483,1.61448,0.025558
aVL,484,1.61783,0.025485
aVL,485,1.62117,0.013239
aVL,486,1.62451,-0.003032
aVL,487,1.62786,-0.00785
aVL,488,1.6312,-0.0016
aVL,489,1.63454,0.008521
aVL,490,1.63788,0.01714
aVL,491,1.64123,0.018396
aVL,492,1.64457,-0.000834
aVL,493,1.64791,-0.045549
aVL,494,1.65125,-0.1024
aVL,495,1.6546,-0.158422
aVL,496,1.65794,-0.199263
aVL,497,1.66128,-0.226961
aVL,498,1.66462,-0.227991
aVL,499,1.66797,-0.14442
aVL,500,1.67131,0.013206
aVL,501,1.67465,0.230518
aVL,502,1.67799,0.604239
aVL,503,1.68134,1.081754
aVL,504,1.68468,1.389309
aVL,505,1.68802,1.456419
aVL,506,1.69136,1.416093
aVL,507,1.69471,1.223153
aVL,508,1.69805,0.867505
aVL,509,1.70139,0.565272
aVL,510,1.70474,0.404405
aVL,511,1.70808,0.295618
aVL,512,1.71142,0.205616
aVL,513,1.71476,0.148824
aVL,514,1.71811,0.111599
aVL,515,1.72145,0.075677
aVL,516,1.72479,0.044633
aVL,517,1.72813,0.026413
aVL,518,1.73148,0.017515
aVL,519,1.73482,0.013976
aVL,520,1.73816,0.011236
aVL,521,1.7415,0.001445
aVL,522,1.74485,-0.009889
aVL,523,1.74819,-0.012591
aVL,524,1.75153,-0.010233
aVL,525,1.75487,-0.00894
aVL,526,1.75822,-0.008736
aVL,527,1.76156,-0.010676
aVL,528,1.7649,-0.015344
aVL,529,1.76825,-0.012633
aVL,530,1.77159,0.001962
aVL,531,1.77493,0.013763
aVL,532,1.77827,0.014614
aVL,533,1.78162,0.009228
aVL,534,1.78496,0.002275
aVL,535,1.7883,-0.003529
aVL,536,1.79164,-0.007754
aVL,537,1.79499,-0.009417
aVL,538,1.79833,-0.009483
aVL,539,1.80167,-0.010384
aVL,540,1.80501,-0.015152
aVL,541,1.80836,-0.022862
aVL,542,1.8117,-0.022711
aVL,543,1.81504,-0.015152
aVL,544,1.81838,-0.014512
aVL,545,1.82173,-0.021587
aVL,546,1.82507,-0.027547
aVL,547,1.82841,-0.030113
aVL,548,1.83175,-0.027629
aVL,549,1.8351,-0.021406
aVL,550,1.83844,-0.020955
aVL,551,1.84178,-0.02781
aVL,552,1.84513,-0.033789
aVL,553,1.84847,-0.036231
aVL,554,1.85181,-0.034562
aVL,555,1.85515,-0.027762
aVL,556,1.8585,-0.019376
aVL,557,1.86184,-0.011958
aVL,558,1.86518,-0.00688
aVL,559,1.86852,-0.005784
aVL,560,1.87187,-0.008499
aVL,561,1.87521,-0.016276
aVL,562,1.87855,-0.027685
aVL,563,1.88189,-0.037041
aVL,564,1.88524,-0.041243
aVL,565,1.88858,-0.039492
aVL,566,1.89192,-0.034986
aVL,567,1.89526,-0.032713
aVL,568,1.89861,-0.035535
aVL,569,1.90195,-0.048044
aVL,570,1.90529,-0.063513
aVL,571,1.90864,-0.069126
aVL,572,1.91198,-0.070645
aVL,573,1.91532,-0.075545
aVL,574,1.91866,-0.079407
aVL,575,1.92201,-0.082586
aVL,576,1.92535,-0.088302
aVL,577,1.92869,-0.09367
aVL,578,1.93203,-0.09658
aVL,579,1.93538,-0.095075
aVL,580,1.93872,-0.090248
aVL,581,1.94206,-0.092583
aVL,582,1.9454,-0.101192
aVL,583,1.94875,-0.10488
aVL,584,1.95209,-0.10575
aVL,585,1.95543,-0.105802
aVL,586,1.95877,-0.100463
aVL,587,1.96212,-0.093179
aVL,588,1.96546,-0.086525
aVL,589,1.9688,-0.078752
aVL,590,1.97214,-0.073324
aVL,591,1.97549,-0.071146
aVL,592,1.97883,-0.068955
aVL,593,1.98217,-0.066422
aVL,594,1.98552,-0.064398
aVL,595,1.98886,-0.062365
aVL,596,1.9922,-0.057368
aVL,597,1.99554,-0.049191
aVL,598,1.99889,-0.042433
aVL,599,2.00223,-0.037292
aVL,600,2.00557,-0.027487
aVL,601,2.00891,-0.016187
aVL,602,2.01226,-0.014121
aVL,603,2.0156,-0.017446
aVL,604,2.01894,-0.019394
aVL,605,2.02228,-0.022542
aVL,606,2.02563,-0.023036
aVL,607,2.02897,-0.018184
aVL,608,2.03231,-0.018943
aVL,609,2.03565,-0.030089
aVL,610,2.039,-0.040386
aVL,611,2.04234,-0.044015
aVL,612,2.04568,-0.046515
aVL,613,2.04903,-0.046678
aVL,614,2.05237,-0.041863
aVL,615,2.05571,-0.042567
aVL,616,2.05905,-0.051334
aVL,617,2.0624,-0.053893
aVL,618,2.06574,-0.05455
aVL,619,2.06908,-0.067783
aVL,620,2.07242,-0.081169
aVL,621,2.07577,-0.083854
aVL,622,2.07911,-0.08571
aVL,623,2.08245,-0.089056
aVL,624,2.08579,-0.090295
aVL,625,2.08914,-0.094415
aVL,626,2.09248,-0.10234
aVL,627,2.09582,-0.107177
aVL,628,2.09916,-0.109203
aVL,629,2.10251,-0.112023
aVL,630,2.10585,-0.114298
aVL,631,2.10919,-0.116255
aVL,632,2.11253,-0.118501
aVL,633,2.11588,-0.120362
aVL,634,2.11922,-0.125717
aVL,635,2.12256,-0.134438
aVL,636,2.12591,-0.138675
aVL,637,2.12925,-0.139613
aVL,638,2.13259,-0.142866
aVL,639,2.13593,-0.143737
aVL,640,2.13928,-0.141059
aVL,641,2.14262,-0.141582
aVL,642,2.14596,-0.144452
aVL,643,2.1493,-0.146589
aVL,644,2.15265,-0.152601
aVL,645,2.15599,-0.162302
aVL,646,2.15933,-0.169437
aVL,647,2.16267,-0.181115
aVL,648,2.16602,-0.199265
aVL,649,2.16936,-0.206768
aVL,650,2.1727,-0.202564
aVL,651,2.17604,-0.196364
aVL,652,2.17939,-0.18741
aVL,653,2.18273,-0.180044
aVL,654,2.18607,-0.179141
aVL,655,2.18942,-0.1769
aVL,656,2.19276,-0.170975
aVL,657,2.1961,-0.169594
aVL,658,2.19944,-0.171364
aVL,659,2.20279,-0.171505
aVL,660,2.20613,-0.171592
aVL,661,2.20947,-0.168731
aVL,662,2.21281,-0.162896
aVL,663,2.21616,-0.161419
aVL,664,2.2195,-0.163431
aVL,665,2.22284,-0.163308
aVL,666,2.22618,-0.162507
aVL,667,2.22953,-0.162601
aVL,668,2.23287,-0.160093
aVL,669,2.23621,-0.156127
aVL,670,2.23955,-0.152641
aVL,671,2.2429,-0.146938
aVL,672,2.24624,-0.145354
aVL,673,2.24958,-0.152957
aVL,674,2.25292,-0.161334
aVL,675,2.25627,-0.164068
aVL,676,2.25961,-0.161137
aVL,677,2.26295,-0.157908
aVL,678,2.2663,-0.159509
aVL,679,2.26964,-0.164226
aVL,680,2.27298,-0.169018
aVL,681,2.27632,-0.17106
aVL,682,2.27967,-0.17342
aVL,683,2.28301,-0.178845
aVL,684,2.28635,-0.181056
aVL,685,2.28969,-0.177631
aVL,686,2.29304,-0.170384
aVL,687,2.29638,-0.160763
aVL,688,2.29972,-0.154149
aVL,689,2.30306,-0.152566
aVL,690,2.30641,-0.151388
aVL,691,2.30975,-0.151923
aVL,692,2.31309,-0.161191
aVL,693,2.31643,-0.17681
aVL,694,2.31978,-0.184443
aVL,695,2.32312,-0.179821
aVL,696,2.32646,-0.176269
aVL,697,2.32981,-0.174843
aVL,698,2.33315,-0.166649
aVL,699,2.33649,-0.15873
aVL,700,2.33983,-0.157861
aVL,701,2.34318,-0.15799
aVL,702,2.34652,-0.156452
aVL,703,2.34986,-0.155322
aVL,704,2.3532,-0.154495
aVL,705,2.35655,-0.156316
aVL,706,2.35989,-0.163693
aVL,707,2.36323,-0.173309
aVL,708,2.36657,-0.178943
aVL,709,2.36992,-0.179074
aVL,710,2.37326,-0.178066
aVL,711,2.3766,-0.178475
aVL,712,2.37994,-0.178736
aVL,713,2.38329,-0.177593
aVL,714,2.38663,-0.17568
aVL,715,2.38997,-0.175156
aVL,716,2.39331,-0.173287
aVL,717,2.39666,-0.165433
aVF,0,0.0,0.02232
aVF,1,0.00334,0.031894
aVF,2,0.00669,0.074448
aVF,3,0.01003,0.094942
aVF,4,0.01337,0.082672
aVF,5,0.01671,0.071518
aVF,6,0.02006,0.06564
aVF,7,0.0234,0.067403
aVF,8,0.02674,0.07487
aVF,9,0.03008,0.076944
aVF,10,0.03343,0.076289
aVF,11,0.03677,0.07248
aVF,12,0.04011,0.059265
aVF,13,0.04345,0.042985
aVF,14,0.0468,0.027735
aVF,15,0.05014,0.012256
aVF,16,0.05348,0.002693
aVF,17,0.05682,0.000845
aVF,18,0.06017,0.001521
aVF,19,0.06351,0.003816
aVF,20,0.06685,0.004223
aVF,21,0.07019,-0.003059
aVF,22,0.07354,-0.012096
aVF,23,0.07688,-0.014507
aVF,24,0.08022,-0.013255
aVF,25,0.08357,-0.012567
aVF,26,0.08691,-0.008919
aVF,27,0.09025,-0.002329
aVF,28,0.09359,-0.003006
aVF,29,0.09694,-0.012955
aVF,30,0.10028,-0.019672
aVF,31,0.10362,-0.017314
aVF,32,0.10696,-0.010401
aVF,33,0.11031,-0.001382
aVF,34,0.11365,0.00918
aVF,35,0.11699,0.017819
aVF,36,0.12033,0.019701
aVF,37,0.12368,0.018226
aVF,38,0.12702,0.02071
aVF,39,0.13036,0.024299
aVF,40,0.1337,0.024859
aVF,41,0.13705,0.025308
aVF,42,0.14039,0.028137
aVF,43,0.14373,0.032487
aVF,44,0.14708,0.037062
aVF,45,0.15042,0.040359
aVF,46,0.15376,0.03882
aVF,47,0.1571,0.033631
aVF,48,0.16045,0.033224
aVF,49,0.16379,0.040724
aVF,50,0.16713,0.050152
aVF,51,0.17047,0.056622
aVF,52,0.17382,0.060759
aVF,53,0.17716,0.065043
aVF,54,0.1805,0.07111
aVF,55,0.18384,0.079972
aVF,56,0.18719,0.089569
aVF,57,0.19053,0.093897
aVF,58,0.19387,0.093226
aVF,59,0.19721,0.092701
aVF,60,0.20056,0.094052
aVF,61,0.2039,0.10083
aVF,62,0.20724,0.111212
aVF,63,0.21058,0.115713
aVF,64,0.21393,0.114276
aVF,65,0.21727,0.113286
aVF,66,0.22061,0.115382
aVF,67,0.22396,0.120323
aVF,68,0.2273,0.124638
aVF,69,0.23064,0.128418
aVF,70,0.23398,0.134607
aVF,71,0.23733,0.140835
aVF,72,0.24067,0.145089
aVF,73,0.24401,0.145674
aVF,74,0.24735,0.140248
aVF,75,0.2507,0.128364
aVF,76,0.25404,0.11472
aVF,77,0.25738,0.111773
aVF,78,0.26072,0.119183
aVF,79,0.26407,0.127894
aVF,80,0.26741,0.13988
aVF,81,0.27075,0.149897
aVF,82,0.27409,0.148926
aVF,83,0.27744,0.144015
aVF,84,0.28078,0.143406
aVF,85,0.28412,0.146593
aVF,86,0.28747,0.151637
aVF,87,0.29081,0.151684
aVF,88,0.29415,0.141741
aVF,89,0.29749,0.131961
aVF,90,0.30084,0.130018
aVF,91,0.30418,0.131429
aVF,92,0.30752,0.134384
aVF,93,0.31086,0.139048
aVF,94,0.31421,0.141373
aVF,95,0.31755,0.139676
aVF,96,0.32089,0.140442
aVF,97,0.32423,0.14668
aVF,98,0.32758,0.152753
aVF,99,0.33092,0.156454
aVF,100,0.33426,0.157071
aVF,101,0.3376,0.157164
aVF,102,0.34095,0.163662
aVF,103,0.34429,0.171141
aVF,104,0.34763,0.170764
aVF,105,0.35097,0.16304
aVF,106,0.35432,0.149925
aVF,107,0.35766,0.138397
aVF,108,0.361,0.137382
aVF,109,0.36435,0.146927
aVF,110,0.36769,0.160879
aVF,111,0.37103,0.171418
aVF,112,0.37437,0.173687
aVF,113,0.37772,0.168198
aVF,114,0.38106,0.16114
aVF,115,0.3844,0.161601
aVF,116,0.38774,0.168383
aVF,117,0.39109,0.170074
aVF,118,0.39443,0.163517
aVF,119,0.39777,0.157445
aVF,120,0.40111,0.15851
aVF,121,0.40446,0.166474
aVF,122,0.4078,0.177306
aVF,123,0.41114,0.174726
aVF,124,0.41448,0.166731
aVF,125,0.41783,0.18285
aVF,126,0.42117,0.15974
aVF,127,0.42451,0.18832
aVF,128,0.42786,0.281831
aVF,129,0.4312,-0.019589
aVF,130,0.43454,-0.359811
aVF,131,0.43788,-0.060178
aVF,132,0.44123,0.23367
aVF,133,0.44457,0.162629
aVF,134,0.44791,0.159192
aVF,135,0.45125,0.192279
aVF,136,0.4546,0.172235
aVF,137,0.45794,0.173085
aVF,138,0.46128,0.183976
aVF,139,0.46462,0.201328
aVF,140,0.46797,0.211872
aVF,141,0.47131,0.198078
aVF,142,0.47465,0.177001
aVF,143,0.47799,0.166697
aVF,144,0.48134,0.169749
aVF,145,0.48468,0.184439
aVF,146,0.48802,0.201542
aVF,147,0.49136,0.209631
aVF,148,0.49471,0.207409
aVF,149,0.49805,0.210853
aVF,150,0.50139,0.231484
aVF,151,0.50474,0.259625
aVF,152,0.50808,0.29267
aVF,153,0.51142,0.261151
aVF,154,0.51476,0.22283
aVF,155,0.51811,0.343775
aVF,156,0.52145,0.103517
aVF,157,0.52479,-0.631927
aVF,158,0.52813,-0.640353
aVF,159,0.53148,0.081393
aVF,160,0.53482,0.310288
aVF,161,0.53816,0.175988
aVF,162,0.5415,0.204742
aVF,163,0.54485,0.24091
aVF,164,0.54819,0.22379
aVF,165,0.55153,0.202956
aVF,166,0.55487,0.173678
aVF,167,0.55822,0.162571
aVF,168,0.56156,0.172758
aVF,169,0.5649,0.190568
aVF,170,0.56825,0.200096
aVF,171,0.57159,0.189218
aVF,172,0.57493,0.173318
aVF,173,0.57827,0.16564
aVF,174,0.58162,0.16682
aVF,175,0.58496,0.180471
aVF,176,0.5883,0.191175
aVF,177,0.59164,0.18123
aVF,178,0.59499,0.165116
aVF,179,0.59833,0.162183
aVF,180,0.60167,0.172711
aVF,181,0.60501,0.189054
aVF,182,0.60836,0.197673
aVF,183,0.6117,0.188667
aVF,184,0.61504,0.175066
aVF,185,0.61838,0.171346
aVF,186,0.62173,0.179471
aVF,187,0.62507,0.200085
aVF,188,0.62841,0.22064
aVF,189,0.63175,0.240264
aVF,190,0.6351,0.272422
aVF,191,0.63844,0.310499
aVF,192,0.64178,0.359205
aVF,193,0.64513,0.425971
aVF,194,0.64847,0.481788
aVF,195,0.65181,0.515573
aVF,196,0.65515,0.51681
aVF,197,0.6585,0.432937
aVF,198,0.66184,0.309052
aVF,199,0.66518,0.166782
aVF,200,0.66852,-0.101495
aVF,201,0.67187,-0.375216
aVF,202,0.67521,-0.46202
aVF,203,0.67855,-0.441591
aVF,204,0.68189,-0.390263
aVF,205,0.68524,-0.296166
aVF,206,0.68858,-0.19725
aVF,207,0.69192,-0.115502
aVF,208,0.69526,-0.043084
aVF,209,0.69861,0.023565
aVF,210,0.70195,0.083904
aVF,211,0.70529,0.126355
aVF,212,0.70864,0.144538
aVF,213,0.71198,0.145008
aVF,214,0.71532,0.138348
aVF,215,0.71866,0.135642
aVF,216,0.72201,0.140254
aVF,217,0.72535,0.149184
aVF,218,0.72869,0.155209
aVF,219,0.73203,0.151318
aVF,220,0.73538,0.143268
aVF,221,0.73872,0.141033
aVF,222,0.74206,0.147617
aVF,223,0.7454,0.159761
aVF,224,0.74875,0.169745
aVF,225,0.75209,0.171279
aVF,226,0.75543,0.164021
aVF,227,0.75877,0.15686
aVF,228,0.76212,0.158563
aVF,229,0.76546,0.166184
aVF,230,0.7688,0.172064
aVF,231,0.77214,0.167956
aVF,232,0.77549,0.151395
aVF,233,0.77883,0.137777
aVF,234,0.78217,0.138643
aVF,235,0.78552,0.143385
aVF,236,0.78886,0.145571
aVF,237,0.7922,0.143895
aVF,238,0.79554,0.133348
aVF,239,0.79889,0.124347
aVF,240,0.80223,0.126033
aVF,241,0.80557,0.13204
aVF,242,0.80891,0.138335
aVF,243,0.81226,0.140679
aVF,244,0.8156,0.137152
aVF,245,0.81894,0.135514
aVF,246,0.82228,0.13935
aVF,247,0.82563,0.142701
aVF,248,0.82897,0.140424
aVF,249,0.83231,0.137652
aVF,250,0.83565,0.139314
aVF,251,0.839,0.138795
aVF,252,0.84234,0.135623
aVF,253,0.84568,0.136008
aVF,254,0.84903,0.136008
aVF,255,0.85237,0.13103
aVF,256,0.85571,0.125925
aVF,257,0.85905,0.127856
aVF,258,0.8624,0.135029
aVF,259,0.86574,0.14141
aVF,260,0.86908,0.145196
aVF,261,0.87242,0.14165
aVF,262,0.87577,0.129984
aVF,263,0.87911,0.120203
aVF,264,0.88245,0.1163
aVF,265,0.88579,0.114218
aVF,266,0.88914,0.119047
aVF,267,0.89248,0.132374
aVF,268,0.89582,0.141919
aVF,269,0.89916,0.147955
aVF,270,0.90251,0.158189
aVF,271,0.90585,0.168511
aVF,272,0.90919,0.174622
aVF,273,0.91253,0.178997
aVF,274,0.91588,0.184629
aVF,275,0.91922,0.190055
aVF,276,0.92256,0.195499
aVF,277,0.92591,0.201108
aVF,278,0.92925,0.201711
aVF,279,0.93259,0.197901
aVF,280,0.93593,0.192748
aVF,281,0.93928,0.186906
aVF,282,0.94262,0.185287
aVF,283,0.94596,0.189353
aVF,284,0.9493,0.192036
aVF,285,0.95265,0.192203
aVF,286,0.95599,0.195661
aVF,287,0.95933,0.194285
aVF,288,0.96267,0.180141
aVF,289,0.96602,0.165073
aVF,290,0.96936,0.151886
aVF,291,0.9727,0.135112
aVF,292,0.97604,0.12381
aVF,293,0.97939,0.120173
aVF,294,0.98273,0.117369
aVF,295,0.98607,0.113134
aVF,296,0.98942,0.101715
aVF,297,0.99276,0.085247
aVF,298,0.9961,0.075319
aVF,299,0.99944,0.072984
aVF,300,1.00279,0.075275
aVF,301,1.00613,0.082649
aVF,302,1.00947,0.088459
aVF,303,1.01281,0.086965
aVF,304,1.01616,0.083593
aVF,305,1.0195,0.083235
aVF,306,1.02284,0.083591
aVF,307,1.02618,0.082327
aVF,308,1.02953,0.082884
aVF,309,1.03287,0.085496
aVF,310,1.03621,0.085148
aVF,311,1.03955,0.084428
aVF,312,1.0429,0.083001
aVF,313,1.04624,0.075113
aVF,314,1.04958,0.066611
aVF,315,1.05292,0.060547
aVF,316,1.05627,0.05364
aVF,317,1.05961,0.051248
aVF,318,1.06295,0.050521
aVF,319,1.0663,0.042368
aVF,320,1.06964,0.033082
aVF,321,1.07298,0.028752
aVF,322,1.07632,0.028247
aVF,323,1.07967,0.035976
aVF,324,1.08301,0.050014
aVF,325,1.08635,0.060123
aVF,326,1.08969,0.064088
aVF,327,1.09304,0.064169
aVF,328,1.09638,0.059642
aVF,329,1.09972,0.053192
aVF,330,1.10306,0.050936
aVF,331,1.10641,0.050742
aVF,332,1.10975,0.047967
aVF,333,1.11309,0.047796
aVF,334,1.11643,0.051401
aVF,335,1.11978,0.052688
aVF,336,1.12312,0.052003
aVF,337,1.12646,0.048846
aVF,338,1.12981,0.041926
aVF,339,1.13315,0.036481
aVF,340,1.13649,0.037247
aVF,341,1.13983,0.044
aVF,342,1.14318,0.049855
aVF,343,1.14652,0.052174
aVF,344,1.14986,0.054712
aVF,345,1.1532,0.054927
aVF,346,1.15655,0.052601
aVF,347,1.15989,0.05189
aVF,348,1.16323,0.051252
aVF,349,1.16657,0.049563
aVF,350,1.16992,0.048536
aVF,351,1.17326,0.044308
aVF,352,1.1766,0.036575
aVF,353,1.17994,0.035979
aVF,354,1.18329,0.041435
aVF,355,1.18663,0.041829
aVF,356,1.18997,0.03942
aVF,357,1.19331,0.036168
aVF,358,1.19666,0.027412
aVF,359,1.2,0.01915
aVF,360,1.20334,0.017029
aVF,361,1.20669,0.016181
aVF,362,1.21003,0.014361
aVF,363,1.21337,0.010829
aVF,364,1.21671,0.002897
aVF,365,1.22006,-0.007186
aVF,366,1.2234,-0.01525
aVF,367,1.22674,-0.017873
aVF,368,1.23008,-0.010489
aVF,369,1.23343,0.002636
aVF,370,1.23677,0.009115
aVF,371,1.24011,0.011202
aVF,372,1.24345,0.016001
aVF,373,1.2468,0.01462
aVF,374,1.25014,0.006078
aVF,375,1.25348,0.001719
aVF,376,1.25682,0.001799
aVF,377,1.26017,0.001139
aVF,378,1.26351,-0.000866
aVF,379,1.26685,-0.00037
aVF,380,1.27019,0.003358
aVF,381,1.27354,0.002239
aVF,382,1.27688,-0.006441
aVF,383,1.28022,-0.016896
aVF,384,1.28357,-0.02412
aVF,385,1.28691,-0.027427
aVF,386,1.29025,-0.02965
aVF,387,1.29359,-0.029446
aVF,388,1.29694,-0.026096
aVF,389,1.30028,-0.022342
aVF,390,1.30362,-0.018814
aVF,391,1.30696,-0.018418
aVF,392,1.31031,-0.021254
aVF,393,1.31365,-0.023178
aVF,394,1.31699,-0.023999
aVF,395,1.32033,-0.024797
aVF,396,1.32368,-0.025839
aVF,397,1.32702,-0.027622
aVF,398,1.33036,-0.029791
aVF,399,1.3337,-0.031495
aVF,400,1.33705,-0.032512
aVF,401,1.34039,-0.033277
aVF,402,1.34373,-0.034134
aVF,403,1.34708,-0.036306
aVF,404,1.35042,-0.038554
aVF,405,1.35376,-0.038423
aVF,406,1.3571,-0.043432
aVF,407,1.36045,-0.055917
aVF,408,1.36379,-0.060018
aVF,409,1.36713,-0.052375
aVF,410,1.37047,-0.047659
aVF,411,1.37382,-0.046993
aVF,412,1.37716,-0.041213
aVF,413,1.3805,-0.033613
aVF,414,1.38384,-0.033918
aVF,415,1.38719,-0.045612
aVF,416,1.39053,-0.062377
aVF,417,1.39387,-0.072572
aVF,418,1.39721,-0.074645
aVF,419,1.40056,-0.073438
aVF,420,1.4039,-0.068244
aVF,421,1.40724,-0.060307
aVF,422,1.41058,-0.055582
aVF,423,1.41393,-0.055498
aVF,424,1.41727,-0.05705
aVF,425,1.42061,-0.058402
aVF,426,1.42396,-0.057308
aVF,427,1.4273,-0.054631
aVF,428,1.43064,-0.052513
aVF,429,1.43398,-0.048624
aVF,430,1.43733,-0.047775
aVF,431,1.44067,-0.058199
aVF,432,1.44401,-0.073977
aVF,433,1.44735,-0.085652
aVF,434,1.4507,-0.095399
aVF,435,1.45404,-0.10463
aVF,436,1.45738,-0.105421
aVF,437,1.46072,-0.097675
aVF,438,1.46407,-0.092486
aVF,439,1.46741,-0.090735
aVF,440,1.47075,-0.088008
aVF,441,1.47409,-0.08744
aVF,442,1.47744,-0.086882
aVF,443,1.48078,-0.083186
aVF,444,1.48412,-0.078923
aVF,445,1.48747,-0.078368
aVF,446,1.49081,-0.084151
aVF,447,1.49415,-0.086608
aVF,448,1.49749,-0.079805
aVF,449,1.50084,-0.071175
aVF,450,1.50418,-0.063836
aVF,451,1.50752,-0.059369
aVF,452,1.51086,-0.05823
aVF,453,1.51421,-0.054211
aVF,454,1.51755,-0.043578
aVF,455,1.52089,-0.029932
aVF,456,1.52423,-0.021255
aVF,457,1.52758,-0.023891
aVF,458,1.53092,-0.034598
aVF,459,1.53426,-0.04139
aVF,460,1.5376,-0.045571
aVF,461,1.54095,-0.060252
aVF,462,1.54429,-0.076704
aVF,463,1.54763,-0.080958
aVF,464,1.55097,-0.082005
aVF,465,1.55432,-0.088358
aVF,466,1.55766,-0.09515
aVF,467,1.561,-0.098585
aVF,468,1.56435,-0.102811
aVF,469,1.56769,-0.109622
aVF,470,1.57103,-0.114113
aVF,471,1.57437,-0.115205
aVF,472,1.57772,-0.112884
aVF,473,1.58106,-0.108436
aVF,474,1.5844,-0.105118
aVF,475,1.58774,-0.101941
aVF,476,1.59109,-0.103285
aVF,477,1.59443,-0.112735
aVF,478,1.59777,-0.120447
aVF,479,1.60111,-0.120284
aVF,480,1.60446,-0.121667
aVF,481,1.6078,-0.131685
aVF,482,1.61114,-0.141777
aVF,483,1.61448,-0.144149
aVF,484,1.61783,-0.142958
aVF,485,1.62117,-0.142572
aVF,486,1.62451,-0.143179
aVF,487,1.62786,-0.14557
aVF,488,1.6312,-0.148495
aVF,489,1.63454,-0.148499
aVF,490,1.63788,-0.142485
aVF,491,1.64123,-0.127792
aVF,492,1.64457,-0.111555
aVF,493,1.64791,-0.090115
aVF,494,1.65125,-0.044535
aVF,495,1.6546,0.01185
aVF,496,1.65794,0.061523
aVF,497,1.66128,0.110739
aVF,498,1.66462,0.152282
aVF,499,1.66797,0.190226
aVF,500,1.67131,0.234647
aVF,501,1.67465,0.220255
aVF,502,1.67799,0.089807
aVF,503,1.68134,-0.1133
aVF,504,1.68468,-0.33294
aVF,505,1.68802,-0.51557
aVF,506,1.69136,-0.666823
aVF,507,1.69471,-0.800853
aVF,508,1.69805,-0.812043
aVF,509,1.70139,-0.706264
aVF,510,1.70474,-0.600534
aVF,511,1.70808,-0.492322
aVF,512,1.71142,-0.370846
aVF,513,1.71476,-0.281847
aVF,514,1.71811,-0.233253
aVF,515,1.72145,-0.208303
aVF,516,1.72479,-0.198338
aVF,517,1.72813,-0.195672
aVF,518,1.73148,-0.196069
aVF,519,1.73482,-0.19685
aVF,520,1.73816,-0.196048
aVF,521,1.7415,-0.193481
aVF,522,1.74485,-0.187995
aVF,523,1.74819,-0.180943
aVF,524,1.75153,-0.176042
aVF,525,1.75487,-0.175338
aVF,526,1.75822,-0.173999
aVF,527,1.76156,-0.163982
aVF,528,1.7649,-0.149925
aVF,529,1.76825,-0.143967
aVF,530,1.77159,-0.144606
aVF,531,1.77493,-0.146186
aVF,532,1.77827,-0.152084
aVF,533,1.78162,-0.158819
aVF,534,1.78496,-0.160356
aVF,535,1.7883,-0.164316
aVF,536,1.79164,-0.171697
aVF,537,1.79499,-0.172861
aVF,538,1.79833,-0.172216
aVF,539,1.80167,-0.176826
aVF,540,1.80501,-0.181191
aVF,541,1.80836,-0.18037
aVF,542,1.8117,-0.176701
aVF,543,1.81504,-0.174105
aVF,544,1.81838,-0.173012
aVF,545,1.82173,-0.173271
aVF,546,1.82507,-0.172108
aVF,547,1.82841,-0.168209
aVF,548,1.83175,-0.169522
aVF,549,1.8351,-0.175128
aVF,550,1.83844,-0.175719
aVF,551,1.84178,-0.173715
aVF,552,1.84513,-0.174997
aVF,553,1.84847,-0.178112
aVF,554,1.85181,-0.177086
aVF,555,1.85515,-0.170732
aVF,556,1.8585,-0.166868
aVF,557,1.86184,-0.167872
aVF,558,1.86518,-0.166824
aVF,559,1.86852,-0.163282
aVF,560,1.87187,-0.162119
aVF,561,1.87521,-0.161825
aVF,562,1.87855,-0.160829
aVF,563,1.88189,-0.158794
aVF,564,1.88524,-0.152594
aVF,565,1.88858,-0.146184
aVF,566,1.89192,-0.146872
aVF,567,1.89526,-0.153477
aVF,568,1.89861,-0.161151
aVF,569,1.90195,-0.167067
aVF,570,1.90529,-0.170463
aVF,571,1.90864,-0.169778
aVF,572,1.91198,-0.163627
aVF,573,1.91532,-0.154241
aVF,574,1.91866,-0.142061
aVF,575,1.92201,-0.128952
aVF,576,1.92535,-0.117478
aVF,577,1.92869,-0.105433
aVF,578,1.93203,-0.096615
aVF,579,1.93538,-0.094558
aVF,580,1.93872,-0.093945
aVF,581,1.94206,-0.092591
aVF,582,1.9454,-0.094298
aVF,583,1.94875,-0.099862
aVF,584,1.95209,-0.102324
aVF,585,1.95543,-0.095599
aVF,586,1.95877,-0.081776
aVF,587,1.96212,-0.069497
aVF,588,1.96546,-0.066131
aVF,589,1.9688,-0.070284
aVF,590,1.97214,-0.076972
aVF,591,1.97549,-0.083056
aVF,592,1.97883,-0.084652
aVF,593,1.98217,-0.084826
aVF,594,1.98552,-0.099921
aVF,595,1.98886,-0.122904
aVF,596,1.9922,-0.132817
aVF,597,1.99554,-0.143575
aVF,598,1.99889,-0.164258
aVF,599,2.00223,-0.178216
aVF,600,2.00557,-0.178617
aVF,601,2.00891,-0.173479
aVF,602,2.01226,-0.17101
aVF,603,2.0156,-0.169348
aVF,604,2.01894,-0.169493
aVF,605,2.02228,-0.174338
aVF,606,2.02563,-0.177254
aVF,607,2.02897,-0.177147
aVF,608,2.03231,-0.177302
aVF,609,2.03565,-0.173604
aVF,610,2.039,-0.16616
aVF,611,2.04234,-0.162633
aVF,612,2.04568,-0.166446
aVF,613,2.04903,-0.172537
aVF,614,2.05237,-0.173643
aVF,615,2.05571,-0.1709
aVF,616,2.05905,-0.16896
aVF,617,2.0624,-0.16792
aVF,618,2.06574,-0.169993
aVF,619,2.06908,-0.177236
aVF,620,2.07242,-0.185961
aVF,621,2.07577,-0.19104
aVF,622,2.07911,-0.18879
aVF,623,2.08245,-0.180899
aVF,624,2.08579,-0.172235
aVF,625,2.08914,-0.165321
aVF,626,2.09248,-0.16425
aVF,627,2.09582,-0.169919
aVF,628,2.09916,-0.175043
aVF,629,2.10251,-0.17613
aVF,630,2.10585,-0.17481
aVF,631,2.10919,-0.1689
aVF,632,2.11253,-0.157649
aVF,633,2.11588,-0.148845
aVF,634,2.11922,-0.149043
aVF,635,2.12256,-0.152597
aVF,636,2.12591,-0.153696
aVF,637,2.12925,-0.154345
aVF,638,2.13259,-0.151707
aVF,639,2.13593,-0.142244
aVF,640,2.13928,-0.13071
aVF,641,2.14262,-0.121137
aVF,642,2.14596,-0.115246
aVF,643,2.1493,-0.113202
aVF,644,2.15265,-0.113796
aVF,645,2.15599,-0.118291
aVF,646,2.15933,-0.123137
aVF,647,2.16267,-0.123678
aVF,648,2.16602,-0.12338
aVF,649,2.16936,-0.12395
aVF,650,2.1727,-0.122199
aVF,651,2.17604,-0.118975
aVF,652,2.17939,-0.11708
aVF,653,2.18273,-0.114056
aVF,654,2.18607,-0.109293
aVF,655,2.18942,-0.106873
aVF,656,2.19276,-0.106589
aVF,657,2.1961,-0.107042
aVF,658,2.19944,-0.107897
aVF,659,2.20279,-0.107518
aVF,660,2.20613,-0.107557
aVF,661,2.20947,-0.108558
aVF,662,2.21281,-0.104512
aVF,663,2.21616,-0.0956
aVF,664,2.2195,-0.090484
aVF,665,2.22284,-0.090291
aVF,666,2.22618,-0.090835
aVF,667,2.22953,-0.090521
aVF,668,2.23287,-0.088359
aVF,669,2.23621,-0.08549
aVF,670,2.23955,-0.081072
aVF,671,2.2429,-0.072599
aVF,672,2.24624,-0.065049
aVF,673,2.24958,-0.064111
aVF,674,2.25292,-0.07068
aVF,675,2.25627,-0.084036
aVF,676,2.25961,-0.094968
aVF,677,2.26295,-0.09635
aVF,678,2.2663,-0.09588
aVF,679,2.26964,-0.095011
aVF,680,2.27298,-0.086852
aVF,681,2.27632,-0.077292
aVF,682,2.27967,-0.074689
aVF,683,2.28301,-0.076301
aVF,684,2.28635,-0.078471
aVF,685,2.28969,-0.080163
aVF,686,2.29304,-0.07969
aVF,687,2.29638,-0.07787
aVF,688,2.29972,-0.076432
aVF,689,2.30306,-0.076662
aVF,690,2.30641,-0.081258
aVF,691,2.30975,-0.087682
aVF,692,2.31309,-0.091413
aVF,693,2.31643,-0.093795
aVF,694,2.31978,-0.095316
aVF,695,2.32312,-0.094298
aVF,696,2.32646,-0.089865
aVF,697,2.32981,-0.08264
aVF,698,2.33315,-0.074787
aVF,699,2.33649,-0.063278
aVF,700,2.33983,-0.052977
aVF,701,2.34318,-0.059967
aVF,702,2.34652,-0.075158
aVF,703,2.34986,-0.084145
aVF,704,2.3532,-0.094859
aVF,705,2.35655,-0.101653
aVF,706,2.35989,-0.094658
aVF,707,2.36323,-0.083105
aVF,708,2.36657,-0.075341
aVF,709,2.36992,-0.070243
aVF,710,2.37326,-0.068859
aVF,711,2.3766,-0.076675
aVF,712,2.37994,-0.087974
aVF,713,2.38329,-0.093345
aVF,714,2.38663,-0.093569
aVF,715,2.38997,-0.088198
aVF,716,2.39331,-0.080091
aVF,717,2.39666,-0.076981
V1,0,0.0,-0.142034
V1,1,0.00334,-0.157334
V1,2,0.00669,-0.220567
V1,3,0.01003,-0.245605
V1,4,0.01337,-0.228132
V1,5,0.01671,-0.224263
V1,6,0.02006,-0.225114
V1,7,0.0234,-0.225963
V1,8,0.02674,-0.237081
V1,9,0.03008,-0.245307
V1,10,0.03343,-0.240406
V1,11,0.03677,-0.231645
V1,12,0.04011,-0.223678
V1,13,0.04345,-0.21302
V1,14,0.0468,-0.201859
V1,15,0.05014,-0.189909
V1,16,0.05348,-0.174791
V1,17,0.05682,-0.159865
V1,18,0.06017,-0.149147
V1,19,0.06351,-0.152315
V1,20,0.06685,-0.169123
V1,21,0.07019,-0.176882
V1,22,0.07354,-0.171764
V1,23,0.07688,-0.168738
V1,24,0.08022,-0.164344
V1,25,0.08357,-0.151653
V1,26,0.08691,-0.136493
V1,27,0.09025,-0.122989
V1,28,0.09359,-0.110381
V1,29,0.09694,-0.100283
V1,30,0.10028,-0.094632
V1,31,0.10362,-0.092572
V1,32,0.10696,-0.09155
V1,33,0.11031,-0.090858
V1,34,0.11365,-0.090938
V1,35,0.11699,-0.091146
V1,36,0.12033,-0.093967
V1,37,0.12368,-0.098912
V1,38,0.12702,-0.101176
V1,39,0.13036,-0.099142
V1,40,0.1337,-0.090395
V1,41,0.13705,-0.077259
V1,42,0.14039,-0.066602
V1,43,0.14373,-0.061296
V1,44,0.14708,-0.061205
V1,45,0.15042,-0.058053
V1,46,0.15376,-0.047012
V1,47,0.1571,-0.033416
V1,48,0.16045,-0.022392
V1,49,0.16379,-0.021951
V1,50,0.16713,-0.030275
V1,51,0.17047,-0.032225
V1,52,0.17382,-0.022092
V1,53,0.17716,-0.007648
V1,54,0.1805,0.000893
V1,55,0.18384,-0.001672
V1,56,0.18719,-0.012457
V1,57,0.19053,-0.019205
V1,58,0.19387,-0.013408
V1,59,0.19721,-0.002732
V1,60,0.20056,0.002736
V1,61,0.2039,0.001334
V1,62,0.20724,-0.00302
V1,63,0.21058,-0.002572
V1,64,0.21393,0.005017
V1,65,0.21727,0.021318
V1,66,0.22061,0.051444
V1,67,0.22396,0.08348
V1,68,0.2273,0.12966
V1,69,0.23064,0.23944
V1,70,0.23398,0.417838
V1,71,0.23733,0.599471
V1,72,0.24067,0.729076
V1,73,0.24401,0.783192
V1,74,0.24735,0.662548
V1,75,0.2507,0.380902
V1,76,0.25404,0.063975
V1,77,0.25738,-0.34865
V1,78,0.26072,-0.736705
V1,79,0.26407,-0.855745
V1,80,0.26741,-0.811184
V1,81,0.27075,-0.694673
V1,82,0.27409,-0.477959
V1,83,0.27744,-0.259845
V1,84,0.28078,-0.100493
V1,85,0.28412,0.0244
V1,86,0.28747,0.108408
V1,87,0.29081,0.16114
V1,88,0.29415,0.215064
V1,89,0.29749,0.260805
V1,90,0.30084,0.280876
V1,91,0.30418,0.279388
V1,92,0.30752,0.268527
V1,93,0.31086,0.265489
V1,94,0.31421,0.278233
V1,95,0.31755,0.296961
V1,96,0.32089,0.303828
V1,97,0.32423,0.295714
V1,98,0.32758,0.284802
V1,99,0.33092,0.282372
V1,100,0.33426,0.295172
V1,101,0.3376,0.315086
V1,102,0.34095,0.321598
V1,103,0.34429,0.311078
V1,104,0.34763,0.301327
V1,105,0.35097,0.304115
V1,106,0.35432,0.319523
V1,107,0.35766,0.341397
V1,108,0.361,0.352216
V1,109,0.36435,0.345335
V1,110,0.36769,0.336472
V1,111,0.37103,0.336867
V1,112,0.37437,0.348361
V1,113,0.37772,0.366778
V1,114,0.38106,0.375136
V1,115,0.3844,0.366612
V1,116,0.38774,0.358292
V1,117,0.39109,0.363077
V1,118,0.39443,0.381118
V1,119,0.39777,0.402773
V1,120,0.40111,0.408419
V1,121,0.40446,0.394048
V1,122,0.4078,0.376614
V1,123,0.41114,0.375379
V1,124,0.41448,0.3999
V1,125,0.41783,0.433792
V1,126,0.42117,0.445557
V1,127,0.42451,0.429483
V1,128,0.42786,0.411795
V1,129,0.4312,0.416289
V1,130,0.43454,0.444329
V1,131,0.43788,0.479116
V1,132,0.44123,0.499309
V1,133,0.44457,0.49727
V1,134,0.44791,0.484056
V1,135,0.45125,0.483392
V1,136,0.4546,0.511448
V1,137,0.45794,0.548174
V1,138,0.46128,0.559748
V1,139,0.46462,0.547666
V1,140,0.46797,0.540156
V1,141,0.47131,0.555548
V1,142,0.47465,0.593327
V1,143,0.47799,0.63537
V1,144,0.48134,0.650795
V1,145,0.48468,0.62938
V1,146,0.48802,0.603971
V1,147,0.49136,0.609153
V1,148,0.49471,0.642782
V1,149,0.49805,0.677881
V1,150,0.50139,0.684955
V1,151,0.50474,0.661319
V1,152,0.50808,0.639069
V1,153,0.51142,0.646788
V1,154,0.51476,0.682314
V1,155,0.51811,0.719278
V1,156,0.52145,0.728497
V1,157,0.52479,0.705324
V1,158,0.52813,0.676338
V1,159,0.53148,0.671701
V1,160,0.53482,0.683445
V1,161,0.53816,0.685926
V1,162,0.5415,0.693874
V1,163,0.54485,0.627328
V1,164,0.54819,0.559845
V1,165,0.55153,0.714378
V1,166,0.55487,0.371785
V1,167,0.55822,-0.648733
V1,168,0.56156,-0.662357
V1,169,0.5649,0.307689
V1,170,0.56825,0.582319
V1,171,0.57159,0.376056
V1,172,0.57493,0.396323
V1,173,0.57827,0.415672
V1,174,0.58162,0.378855
V1,175,0.58496,0.350207
V1,176,0.5883,0.298008
V1,177,0.59164,0.27137
V1,178,0.59499,0.287258
V1,179,0.59833,0.297229
V1,180,0.60167,0.269751
V1,181,0.60501,0.220124
V1,182,0.60836,0.185533
V1,183,0.6117,0.184414
V1,184,0.61504,0.207619
V1,185,0.61838,0.2304
V1,186,0.62173,0.224357
V1,187,0.62507,0.190468
V1,188,0.62841,0.161042
V1,189,0.63175,0.155423
V1,190,0.6351,0.167078
V1,191,0.63844,0.180705
V1,192,0.64178,0.180985
V1,193,0.64513,0.163694
V1,194,0.64847,0.148836
V1,195,0.65181,0.159726
V1,196,0.65515,0.189739
V1,197,0.6585,0.210719
V1,198,0.66184,0.202325
V1,199,0.66518,0.172411
V1,200,0.66852,0.149628
V1,201,0.67187,0.152091
V1,202,0.67521,0.175132
V1,203,0.67855,0.195794
V1,204,0.68189,0.194336
V1,205,0.68524,0.176757
V1,206,0.68858,0.158931
V1,207,0.69192,0.153216
V1,208,0.69526,0.164467
V1,209,0.69861,0.176822
V1,210,0.70195,0.172933
V1,211,0.70529,0.159003
V1,212,0.70864,0.149819
V1,213,0.71198,0.153511
V1,214,0.71532,0.169412
V1,215,0.71866,0.182653
V1,216,0.72201,0.17521
V1,217,0.72535,0.148842
V1,218,0.72869,0.12409
V1,219,0.73203,0.11881
V1,220,0.73538,0.134544
V1,221,0.73872,0.152234
V1,222,0.74206,0.146625
V1,223,0.7454,0.119655
V1,224,0.74875,0.099464
V1,225,0.75209,0.098376
V1,226,0.75543,0.10665
V1,227,0.75877,0.11564
V1,228,0.76212,0.114849
V1,229,0.76546,0.101932
V1,230,0.7688,0.093723
V1,231,0.77214,0.099004
V1,232,0.77549,0.10827
V1,233,0.77883,0.111431
V1,234,0.78217,0.101897
V1,235,0.78552,0.079133
V1,236,0.78886,0.059899
V1,237,0.7922,0.060685
V1,238,0.79554,0.072722
V1,239,0.79889,0.078552
V1,240,0.80223,0.073944
V1,241,0.80557,0.064393
V1,242,0.80891,0.057405
V1,243,0.81226,0.055091
V1,244,0.8156,0.052949
V1,245,0.81894,0.047025
V1,246,0.82228,0.034692
V1,247,0.82563,0.018672
V1,248,0.82897,0.010685
V1,249,0.83231,0.019432
V1,250,0.83565,0.038014
V1,251,0.839,0.049436
V1,252,0.84234,0.04487
V1,253,0.84568,0.02961
V1,254,0.84903,0.014059
V1,255,0.85237,0.00634
V1,256,0.85571,0.007623
V1,257,0.85905,0.010421
V1,258,0.8624,0.004531
V1,259,0.86574,-0.00915
V1,260,0.86908,-0.015149
V1,261,0.87242,-0.007775
V1,262,0.87577,0.000977
V1,263,0.87911,0.005426
V1,264,0.88245,0.004226
V1,265,0.88579,-0.005488
V1,266,0.88914,-0.013979
V1,267,0.89248,-0.012212
V1,268,0.89582,-0.005451
V1,269,0.89916,-0.001818
V1,270,0.90251,-0.010575
V1,271,0.90585,-0.033194
V1,272,0.90919,-0.051811
V1,273,0.91253,-0.052615
V1,274,0.91588,-0.042728
V1,275,0.91922,-0.036595
V1,276,0.92256,-0.039423
V1,277,0.92591,-0.044982
V1,278,0.92925,-0.050838
V1,279,0.93259,-0.057343
V1,280,0.93593,-0.058858
V1,281,0.93928,-0.058368
V1,282,0.94262,-0.065442
V1,283,0.94596,-0.074211
V1,284,0.9493,-0.075135
V1,285,0.95265,-0.071403
V1,286,0.95599,-0.065822
V1,287,0.95933,-0.065171
V1,288,0.96267,-0.081576
V1,289,0.96602,-0.105171
V1,290,0.96936,-0.115239
V1,291,0.9727,-0.110203
V1,292,0.97604,-0.098362
V1,293,0.97939,-0.087964
V1,294,0.98273,-0.088219
V1,295,0.98607,-0.097613
V1,296,0.98942,-0.103154
V1,297,0.99276,-0.102184
V1,298,0.9961,-0.104334
V1,299,0.99944,-0.111377
V1,300,1.00279,-0.120097
V1,301,1.00613,-0.129458
V1,302,1.00947,-0.135036
V1,303,1.01281,-0.133772
V1,304,1.01616,-0.126223
V1,305,1.0195,-0.119626
V1,306,1.02284,-0.127129
V1,307,1.02618,-0.143874
V1,308,1.02953,-0.151197
V1,309,1.03287,-0.147408
V1,310,1.03621,-0.142792
V1,311,1.03955,-0.141417
V1,312,1.0429,-0.142431
V1,313,1.04624,-0.14318
V1,314,1.04958,-0.141376
V1,315,1.05292,-0.137755
V1,316,1.05627,-0.131871
V1,317,1.05961,-0.131419
V1,318,1.06295,-0.15163
V1,319,1.0663,-0.179492
V1,320,1.06964,-0.192073
V1,321,1.07298,-0.19731
V1,322,1.07632,-0.203087
V1,323,1.07967,-0.206389
V1,324,1.08301,-0.211077
V1,325,1.08635,-0.217104
V1,326,1.08969,-0.219599
V1,327,1.09304,-0.21656
V1,328,1.09638,-0.211092
V1,329,1.09972,-0.208847
V1,330,1.10306,-0.213289
V1,331,1.10641,-0.220164
V1,332,1.10975,-0.220133
V1,333,1.11309,-0.213664
V1,334,1.11643,-0.207824
V1,335,1.11978,-0.207704
V1,336,1.12312,-0.217561
V1,337,1.12646,-0.232914
V1,338,1.12981,-0.24101
V1,339,1.13315,-0.237347
V1,340,1.13649,-0.228557
V1,341,1.13983,-0.222098
V1,342,1.14318,-0.222453
V1,343,1.14652,-0.227719
V1,344,1.14986,-0.229826
V1,345,1.1532,-0.226889
V1,346,1.15655,-0.224881
V1,347,1.15989,-0.226846
V1,348,1.16323,-0.236112
V1,349,1.16657,-0.251302
V1,350,1.16992,-0.25025
V1,351,1.17326,-0.216595
V1,352,1.1766,-0.155562
V1,353,1.17994,-0.040883
V1,354,1.18329,0.152959
V1,355,1.18663,0.345406
V1,356,1.18997,0.472524
V1,357,1.19331,0.494296
V1,358,1.19666,0.306942
V1,359,1.2,-0.025577
V1,360,1.20334,-0.362974
V1,361,1.20669,-0.637505
V1,362,1.21003,-0.899309
V1,363,1.21337,-1.220968
V1,364,1.21671,-1.32249
V1,365,1.22006,-1.097029
V1,366,1.2234,-0.843956
V1,367,1.22674,-0.6494
V1,368,1.23008,-0.470794
V1,369,1.23343,-0.333526
V1,370,1.23677,-0.242926
V1,371,1.24011,-0.19492
V1,372,1.24345,-0.170888
V1,373,1.2468,-0.151299
V1,374,1.25014,-0.136844
V1,375,1.25348,-0.128828
V1,376,1.25682,-0.123679
V1,377,1.26017,-0.123129
V1,378,1.26351,-0.126338
V1,379,1.26685,-0.127059
V1,380,1.27019,-0.122578
V1,381,1.27354,-0.115317
V1,382,1.27688,-0.109591
V1,383,1.28022,-0.110704
V1,384,1.28357,-0.119817
V1,385,1.28691,-0.129233
V1,386,1.29025,-0.131217
V1,387,1.29359,-0.126595
V1,388,1.29694,-0.119344
V1,389,1.30028,-0.113806
V1,390,1.30362,-0.113271
V1,391,1.30696,-0.112974
V1,392,1.31031,-0.108324
V1,393,1.31365,-0.101862
V1,394,1.31699,-0.097217
V1,395,1.32033,-0.099156
V1,396,1.32368,-0.105119
V1,397,1.32702,-0.105606
V1,398,1.33036,-0.100455
V1,399,1.3337,-0.092698
V1,400,1.33705,-0.084183
V1,401,1.34039,-0.080548
V1,402,1.34373,-0.083572
V1,403,1.34708,-0.087088
V1,404,1.35042,-0.082795
V1,405,1.35376,-0.069865
V1,406,1.3571,-0.056465
V1,407,1.36045,-0.051666
V1,408,1.36379,-0.054095
V1,409,1.36713,-0.055948
V1,410,1.37047,-0.055744
V1,411,1.37382,-0.051536
V1,412,1.37716,-0.041629
V1,413,1.3805,-0.03076
V1,414,1.38384,-0.023791
V1,415,1.38719,-0.018113
V1,416,1.39053,-0.004524
V1,417,1.39387,0.014702
V1,418,1.39721,0.027952
V1,419,1.40056,0.034685
V1,420,1.4039,0.038982
V1,421,1.40724,0.03981
V1,422,1.41058,0.040978
V1,423,1.41393,0.050281
V1,424,1.41727,0.063285
V1,425,1.42061,0.069649
V1,426,1.42396,0.075583
V1,427,1.4273,0.094134
V1,428,1.43064,0.117124
V1,429,1.43398,0.128509
V1,430,1.43733,0.13308
V1,431,1.44067,0.139708
V1,432,1.44401,0.14408
V1,433,1.44735,0.149017
V1,434,1.4507,0.163485
V1,435,1.45404,0.181932
V1,436,1.45738,0.195311
V1,437,1.46072,0.201467
V1,438,1.46407,0.199397
V1,439,1.46741,0.194655
V1,440,1.47075,0.194432
V1,441,1.47409,0.1952
V1,442,1.47744,0.192428
V1,443,1.48078,0.19013
V1,444,1.48412,0.190085
V1,445,1.48747,0.182228
V1,446,1.49081,0.160552
V1,447,1.49415,0.136093
V1,448,1.49749,0.11495
V1,449,1.50084,0.089911
V1,450,1.50418,0.063328
V1,451,1.50752,0.044004
V1,452,1.51086,0.024251
V1,453,1.51421,-0.003823
V1,454,1.51755,-0.034031
V1,455,1.52089,-0.070238
V1,456,1.52423,-0.11584
V1,457,1.52758,-0.157699
V1,458,1.53092,-0.186725
V1,459,1.53426,-0.203626
V1,460,1.5376,-0.217105
V1,461,1.54095,-0.232103
V1,462,1.54429,-0.24902
V1,463,1.54763,-0.274893
V1,464,1.55097,-0.295217
V1,465,1.55432,-0.299599
V1,466,1.55766,-0.311997
V1,467,1.561,-0.329339
V1,468,1.56435,-0.333173
V1,469,1.56769,-0.333066
V1,470,1.57103,-0.333658
V1,471,1.57437,-0.332844
V1,472,1.57772,-0.33645
V1,473,1.58106,-0.345077
V1,474,1.5844,-0.352857
V1,475,1.58774,-0.355937
V1,476,1.59109,-0.355564
V1,477,1.59443,-0.353366
V1,478,1.59777,-0.350442
V1,479,1.60111,-0.34956
V1,480,1.60446,-0.349085
V1,481,1.6078,-0.343902
V1,482,1.61114,-0.333999
V1,483,1.61448,-0.325221
V1,484,1.61783,-0.320916
V1,485,1.62117,-0.319119
V1,486,1.62451,-0.321733
V1,487,1.62786,-0.328246
V1,488,1.6312,-0.330249
V1,489,1.63454,-0.326999
V1,490,1.63788,-0.323807
V1,491,1.64123,-0.322475
V1,492,1.64457,-0.322631
V1,493,1.64791,-0.322892
V1,494,1.65125,-0.324385
V1,495,1.6546,-0.327204
V1,496,1.65794,-0.327157
V1,497,1.66128,-0.322033
V1,498,1.66462,-0.316669
V1,499,1.66797,-0.316395
V1,500,1.67131,-0.314067
V1,501,1.67465,-0.3061
V1,502,1.67799,-0.301123
V1,503,1.68134,-0.297717
V1,504,1.68468,-0.293071
V1,505,1.68802,-0.289221
V1,506,1.69136,-0.282923
V1,507,1.69471,-0.27973
V1,508,1.69805,-0.287619
V1,509,1.70139,-0.299029
V1,510,1.70474,-0.30488
V1,511,1.70808,-0.3084
V1,512,1.71142,-0.312002
V1,513,1.71476,-0.311263
V1,514,1.71811,-0.307768
V1,515,1.72145,-0.303133
V1,516,1.72479,-0.297289
V1,517,1.72813,-0.29527
V1,518,1.73148,-0.294293
V1,519,1.73482,-0.291356
V1,520,1.73816,-0.296689
V1,521,1.7415,-0.309494
V1,522,1.74485,-0.315843
V1,523,1.74819,-0.320256
V1,524,1.75153,-0.328971
V1,525,1.75487,-0.330379
V1,526,1.75822,-0.324359
V1,527,1.76156,-0.322319
V1,528,1.7649,-0.32568
V1,529,1.76825,-0.328469
V1,530,1.77159,-0.327408
V1,531,1.77493,-0.324282
V1,532,1.77827,-0.31831
V1,533,1.78162,-0.310264
V1,534,1.78496,-0.306181
V1,535,1.7883,-0.307703
V1,536,1.79164,-0.312594
V1,537,1.79499,-0.317722
V1,538,1.79833,-0.321494
V1,539,1.80167,-0.327367
V1,540,1.80501,-0.333836
V1,541,1.80836,-0.332136
V1,542,1.8117,-0.32384
V1,543,1.81504,-0.317912
V1,544,1.81838,-0.314317
V1,545,1.82173,-0.311626
V1,546,1.82507,-0.313107
V1,547,1.82841,-0.318096
V1,548,1.83175,-0.320982
V1,549,1.8351,-0.320565
V1,550,1.83844,-0.320708
V1,551,1.84178,-0.320366
V1,552,1.84513,-0.316115
V1,553,1.84847,-0.309377
V1,554,1.85181,-0.303946
V1,555,1.85515,-0.302622
V1,556,1.8585,-0.303108
V1,557,1.86184,-0.30166
V1,558,1.86518,-0.300055
V1,559,1.86852,-0.296476
V1,560,1.87187,-0.288404
