lead,sample,time_s,mv
I,0,0.0,0.322924
I,1,0.00355,0.297898
I,2,0.007101,0.36697
I,3,0.010651,0.262714
I,4,0.014201,-0.048005
I,5,0.017751,-0.16102
I,6,0.021302,-0.115161
I,7,0.024852,-0.133271
I,8,0.028402,-0.134139
I,9,0.031953,-0.114271
I,10,0.035503,-0.113757
I,11,0.039053,-0.117869
I,12,0.042604,-0.126682
I,13,0.046154,-0.12893
I,14,0.049704,-0.120325
I,15,0.053254,-0.110909
I,16,0.056805,-0.109651
I,17,0.060355,-0.116821
I,18,0.063905,-0.123366
I,19,0.067456,-0.121094
I,20,0.071006,-0.111922
I,21,0.074556,-0.105221
I,22,0.078107,-0.1073
I,23,0.081657,-0.114581
I,24,0.085207,-0.117876
I,25,0.088757,-0.112712
I,26,0.092308,-0.104072
I,27,0.095858,-0.100572
I,28,0.099408,-0.104851
I,29,0.102959,-0.110888
I,30,0.106509,-0.110939
I,31,0.110059,-0.10412
I,32,0.113609,-0.097126
I,33,0.11716,-0.096593
I,34,0.12071,-0.101801
I,35,0.12426,-0.105736
I,36,0.127811,-0.103032
I,37,0.131361,-0.095814
I,38,0.134911,-0.091089
I,39,0.138462,-0.092858
I,40,0.142012,-0.097829
I,41,0.145562,-0.099302
I,42,0.149112,-0.094663
I,43,0.152663,-0.08811
I,44,0.156213,-0.085788
I,45,0.159763,-0.088959
I,46,0.163314,-0.092793
I,47,0.166864,-0.091901
I,48,0.170414,-0.086287
I,49,0.173964,-0.081141
I,50,0.177515,-0.080947
I,51,0.181065,-0.084573
I,52,0.184615,-0.086726
I,53,0.188166,-0.083919
I,54,0.191716,-0.078248
I,55,0.195266,-0.074877
I,56,0.198817,-0.07625
I,57,0.202367,-0.079501
I,58,0.205917,-0.079801
I,59,0.209467,-0.07574
I,60,0.213018,-0.070755
I,61,0.216568,-0.06917
I,62,0.220118,-0.071412
I,63,0.223669,-0.07368
I,64,0.227219,-0.072283
I,65,0.230769,-0.067694
I,66,0.23432,-0.063878
I,67,0.23787,-0.063805
I,68,0.24142,-0.066219
I,69,0.24497,-0.067173
I,70,0.248521,-0.064472
I,71,0.252071,-0.060018
I,72,0.255621,-0.057574
I,73,0.259172,-0.058554
I,74,0.262722,-0.060555
I,75,0.266272,-0.06014
I,76,0.269822,-0.056655
I,77,0.273373,-0.052847
I,78,0.276923,-0.05172
I,79,0.280473,-0.05322
I,80,0.284024,-0.054408
I,81,0.287574,-0.052796
I,82,0.291124,-0.049068
I,83,0.294675,-0.046214
I,84,0.298225,-0.046153
I,85,0.301775,-0.047666
I,86,0.305325,-0.047849
I,87,0.308876,-0.04537
I,88,0.312426,-0.041876
I,89,0.315976,-0.040072
I,90,0.319527,-0.04071
I,91,0.323077,-0.041831
I,92,0.326627,-0.041019
I,93,0.330178,-0.038077
I,94,0.333728,-0.03516
I,95,0.337278,-0.034321
I,96,0.340828,-0.035257
I,97,0.344379,-0.035727
I,98,0.347929,-0.034089
I,99,0.351479,-0.031083
I,100,0.35503,-0.028931
I,101,0.35858,-0.02884
I,102,0.36213,-0.029709
I,103,0.36568,-0.029428
I,104,0.369231,-0.027232
I,105,0.372781,-0.024497
I,106,0.376331,-0.023145
I,107,0.379882,-0.023513
I,108,0.383432,-0.024039
I,109,0.386982,-0.02305
I,110,0.390533,-0.020606
I,111,0.394083,-0.01837
I,112,0.397633,-0.017722
I,113,0.401183,-0.018251
I,114,0.404734,-0.018272
I,115,0.408284,-0.016727
I,116,0.411834,-0.014325
I,117,0.415385,-0.012698
I,118,0.418935,-0.012573
I,119,0.422485,-0.013004
I,120,0.426036,-0.012476
I,121,0.429586,-0.010589
I,122,0.433136,-0.008461
I,123,0.436686,-0.00744
I,124,0.440237,-0.007615
I,125,0.443787,-0.007763
I,126,0.447337,-0.006743
I,127,0.450888,-0.004747
I,128,0.454438,-0.003041
I,129,0.457988,-0.002534
I,130,0.461538,-0.002789
I,131,0.465089,-0.002557
I,132,0.468639,-0.001175
I,133,0.472189,0.00072
I,134,0.47574,0.001945
I,135,0.47929,0.002087
I,136,0.48284,0.001933
I,137,0.486391,0.002557
I,138,0.489941,0.004131
I,139,0.493491,0.005768
I,140,0.497041,0.006534
I,141,0.500592,0.006481
I,142,0.504142,0.00655
I,143,0.507692,0.007505
I,144,0.511243,0.0091
I,145,0.514793,0.010385
I,146,0.518343,0.010776
I,147,0.521893,0.010687
I,148,0.525444,0.011034
I,149,0.528994,0.012212
I,150,0.532544,0.013679
I,151,0.536095,0.014586
I,152,0.539645,0.014721
I,153,0.543195,0.014721
I,154,0.546746,0.015339
I,155,0.550296,0.016611
I,156,0.553846,0.017844
I,157,0.557396,0.018404
I,158,0.560947,0.018411
I,159,0.564497,0.018579
I,160,0.568047,0.019411
I,161,0.571598,0.020651
I,162,0.575148,0.021594
I,163,0.578698,0.021879
I,164,0.582249,0.021872
I,165,0.585799,0.022237
I,166,0.589349,0.023196
I,167,0.592899,0.024299
I,168,0.59645,0.024946
I,169,0.6,0.02505
I,170,0.60355,0.025115
I,171,0.607101,0.02566
I,172,0.610651,0.026648
I,173,0.614201,0.027546
I,174,0.617751,0.02793
I,175,0.621302,0.027947
I,176,0.624852,0.028134
I,177,0.628402,0.028809
I,178,0.631953,0.029736
I,179,0.635503,0.030397
I,180,0.639053,0.030578
I,181,0.642604,0.030591
I,182,0.646154,0.030911
I,183,0.649704,0.031649
I,184,0.653254,0.032442
I,185,0.656805,0.032872
I,186,0.660355,0.032923
I,187,0.663905,0.032989
I,188,0.667456,0.033423
I,189,0.671006,0.03415
I,190,0.674556,0.034767
I,191,0.678107,0.034997
I,192,0.681657,0.034988
I,193,0.685207,0.035138
I,194,0.688757,0.035644
I,195,0.692308,0.036296
I,196,0.695858,0.036721
I,197,0.699408,0.036801
I,198,0.702959,0.03679
I,199,0.706509,0.037026
I,200,0.710059,0.037552
I,201,0.713609,0.038082
I,202,0.71716,0.038325
I,203,0.72071,0.03831
I,204,0.72426,0.038336
I,205,0.727811,0.038639
I,206,0.731361,0.039132
I,207,0.734911,0.039512
I,208,0.738462,0.039604
I,209,0.742012,0.039545
I,210,0.745562,0.039626
I,211,0.749112,0.039962
I,212,0.752663,0.040377
I,213,0.756213,0.040603
I,214,0.759763,0.040582
I,215,0.763314,0.040521
I,216,0.766864,0.040654
I,217,0.770414,0.040984
I,218,0.773964,0.04129
I,219,0.777515,0.041374
I,220,0.781065,0.041284
I,221,0.784615,0.041246
I,222,0.788166,0.041414
I,223,0.791716,0.0417
I,224,0.795266,0.041882
I,225,0.798817,0.041851
I,226,0.802367,0.041728
I,227,0.805917,0.041723
I,228,0.809467,0.0419
I,229,0.813018,0.042111
I,230,0.816568,0.04217
I,231,0.820118,0.042055
I,232,0.823669,0.041929
I,233,0.827219,0.041953
I,234,0.830769,0.042109
I,235,0.83432,0.042227
I,236,0.83787,0.042176
I,237,0.84142,0.04201
I,238,0.84497,0.041897
I,239,0.848521,0.041935
I,240,0.852071,0.042044
I,241,0.855621,0.042061
I,242,0.859172,0.041923
I,243,0.862722,0.041732
I,244,0.866272,0.041637
I,245,0.869822,0.04167
I,246,0.873373,0.041711
I,247,0.876923,0.041632
I,248,0.880473,0.041432
I,249,0.884024,0.041237
I,250,0.887574,0.041156
I,251,0.891124,0.041162
I,252,0.894675,0.041125
I,253,0.898225,0.040962
I,254,0.901775,0.040724
I,255,0.905325,0.040536
I,256,0.908876,0.040457
I,257,0.912426,0.040418
I,258,0.915976,0.040302
I,259,0.919527,0.040074
I,260,0.923077,0.039818
I,261,0.926627,0.039639
I,262,0.930178,0.039547
I,263,0.933728,0.039451
I,264,0.937278,0.03926
I,265,0.940828,0.038987
I,266,0.944379,0.038727
I,267,0.947929,0.038553
I,268,0.951479,0.038435
I,269,0.95503,0.038275
I,270,0.95858,0.038023
I,271,0.96213,0.037722
I,272,0.96568,0.037466
I,273,0.969231,0.037288
I,274,0.972781,0.037131
I,275,0.976331,0.03691
I,276,0.979882,0.03661
I,277,0.983432,0.036297
I,278,0.986982,0.036046
I,279,0.990533,0.035854
I,280,0.994083,0.03565
I,281,0.997633,0.035373
I,282,1.001183,0.035042
I,283,1.004734,0.034728
I,284,1.008284,0.034477
I,285,1.011834,0.034261
I,286,1.015385,0.034008
I,287,1.018935,0.033688
I,288,1.022485,0.033339
I,289,1.026036,0.033027
I,290,1.029586,0.032771
I,291,1.033136,0.032523
I,292,1.036686,0.032225
I,293,1.040237,0.031872
I,294,1.043787,0.031517
I,295,1.047337,0.031209
I,296,1.050888,0.03094
I,297,1.054438,0.030658
I,298,1.057988,0.030321
I,299,1.061538,0.029948
I,300,1.065089,0.029593
I,301,1.068639,0.029285
I,302,1.072189,0.028998
I,303,1.07574,0.02868
I,304,1.07929,0.028314
I,305,1.08284,0.027932
I,306,1.086391,0.027581
I,307,1.089941,0.027269
I,308,1.093491,0.026959
I,309,1.097041,0.02661
I,310,1.100592,0.026224
I,311,1.104142,0.025841
I,312,1.107692,0.025494
I,313,1.111243,0.025174
I,314,1.114793,0.02484
I,315,1.118343,0.024466
I,316,1.121893,0.02407
I,317,1.125444,0.023691
I,318,1.128994,0.023347
I,319,1.132544,0.023015
I,320,1.136095,0.022658
I,321,1.139645,0.022267
I,322,1.143195,0.021869
I,323,1.146746,0.021497
I,324,1.150296,0.021153
I,325,1.153846,0.020806
I,326,1.157396,0.020431
I,327,1.160947,0.020031
I,328,1.164497,0.019637
I,329,1.168047,0.019272
I,330,1.171598,0.018925
I,331,1.175148,0.018565
I,332,1.178698,0.018176
I,333,1.182249,0.017775
I,334,1.185799,0.017389
I,335,1.189349,0.01703
I,336,1.192899,0.016677
I,337,1.19645,0.016306
I,338,1.2,0.015911
I,339,1.20355,0.015515
I,340,1.207101,0.015139
I,341,1.210651,0.014784
I,342,1.214201,0.014426
I,343,1.217751,0.014047
I,344,1.221302,0.013652
I,345,1.224852,0.013265
I,346,1.228402,0.0129
I,347,1.231953,0.012548
I,348,1.235503,0.012185
I,349,1.239053,0.011803
I,350,1.242604,0.011415
I,351,1.246154,0.01104
I,352,1.249704,0.010686
I,353,1.253254,0.010335
I,354,1.256805,0.00997
I,355,1.260355,0.009591
I,356,1.263905,0.009213
I,357,1.267456,0.008853
I,358,1.271006,0.008507
I,359,1.274556,0.008159
I,360,1.278107,0.007796
I,361,1.281657,0.007424
I,362,1.285207,0.007061
I,363,1.288757,0.006716
I,364,1.292308,0.006379
I,365,1.295858,0.006034
I,366,1.299408,0.005677
I,367,1.302959,0.005317
I,368,1.306509,0.004971
I,369,1.310059,0.00464
I,370,1.313609,0.004311
I,371,1.31716,0.003973
I,372,1.32071,0.003626
I,373,1.32426,0.003283
I,374,1.327811,0.002954
I,375,1.331361,0.002637
I,376,1.334911,0.002317
I,377,1.338462,0.001988
I,378,1.342012,0.001656
I,379,1.345562,0.001331
I,380,1.349112,0.001021
I,381,1.352663,0.000718
I,382,1.356213,0.000409
I,383,1.359763,9.3e-05
I,384,1.363314,-0.000222
I,385,1.366864,-0.000526
I,386,1.370414,-0.000817
I,387,1.373964,-0.001107
I,388,1.377515,-0.001402
I,389,1.381065,-0.001702
I,390,1.384615,-0.001997
I,391,1.388166,-0.002279
I,392,1.391716,-0.002552
I,393,1.395266,-0.002827
I,394,1.398817,-0.003107
I,395,1.402367,-0.003387
I,396,1.405917,-0.003659
I,397,1.409467,-0.003919
I,398,1.413018,-0.004174
I,399,1.416568,-0.004432
I,400,1.420118,-0.004694
I,401,1.423669,-0.004952
I,402,1.427219,-0.0052
I,403,1.430769,-0.005439
I,404,1.43432,-0.005675
I,405,1.43787,-0.005915
I,406,1.44142,-0.006155
I,407,1.44497,-0.00639
I,408,1.448521,-0.006614
I,409,1.452071,-0.00683
I,410,1.455621,-0.007047
I,411,1.459172,-0.007266
I,412,1.462722,-0.007483
I,413,1.466272,-0.007692
I,414,1.469822,-0.007892
I,415,1.473373,-0.008086
I,416,1.476923,-0.008282
I,417,1.480473,-0.008478
I,418,1.484024,-0.008671
I,419,1.487574,-0.008854
I,420,1.491124,-0.009028
I,421,1.494675,-0.009201
I,422,1.498225,-0.009374
I,423,1.501775,-0.009546
I,424,1.505325,-0.009712
I,425,1.508876,-0.009869
I,426,1.512426,-0.010019
I,427,1.515976,-0.010168
I,428,1.519527,-0.010318
I,429,1.523077,-0.010464
I,430,1.526627,-0.010603
I,431,1.530178,-0.010733
I,432,1.533728,-0.010859
I,433,1.537278,-0.010985
I,434,1.540828,-0.011109
I,435,1.544379,-0.011228
I,436,1.547929,-0.01134
I,437,1.551479,-0.011444
I,438,1.55503,-0.011545
I,439,1.55858,-0.011646
I,440,1.56213,-0.011744
I,441,1.56568,-0.011835
I,442,1.569231,-0.011919
I,443,1.572781,-0.011997
I,444,1.576331,-0.012074
I,445,1.579882,-0.012149
I,446,1.583432,-0.01222
I,447,1.586982,-0.012284
I,448,1.590533,-0.01234
I,449,1.594083,-0.012393
I,450,1.597633,-0.012443
I,451,1.601183,-0.012492
I,452,1.604734,-0.012536
I,453,1.608284,-0.012572
I,454,1.611834,-0.012602
I,455,1.615385,-0.012628
I,456,1.618935,-0.012654
I,457,1.622485,-0.012675
I,458,1.626036,-0.012691
I,459,1.629586,-0.0127
I,460,1.633136,-0.012703
I,461,1.636686,-0.012705
I,462,1.640237,-0.012704
I,463,1.643787,-0.012699
I,464,1.647337,-0.012687
I,465,1.650888,-0.012669
I,466,1.654438,-0.012647
I,467,1.657988,-0.012622
I,468,1.661538,-0.012595
I,469,1.665089,-0.012563
I,470,1.668639,-0.012524
I,471,1.672189,-0.01248
I,472,1.67574,-0.012433
I,473,1.67929,-0.012384
I,474,1.68284,-0.01233
I,475,1.686391,-0.012272
I,476,1.689941,-0.012207
I,477,1.693491,-0.012138
I,478,1.697041,-0.012066
I,479,1.700592,-0.011991
I,480,1.704142,-0.011912
I,481,1.707692,-0.011828
I,482,1.711243,-0.011738
I,483,1.714793,-0.011644
I,484,1.718343,-0.011548
I,485,1.721893,-0.011449
I,486,1.725444,-0.011345
I,487,1.728994,-0.011236
I,488,1.732544,-0.011122
I,489,1.736095,-0.011005
I,490,1.739645,-0.010885
I,491,1.743195,-0.010762
I,492,1.746746,-0.010634
I,493,1.750296,-0.010501
I,494,1.753846,-0.010364
I,495,1.757396,-0.010225
I,496,1.760947,-0.010083
I,497,1.764497,-0.009937
I,498,1.768047,-0.009786
I,499,1.771598,-0.00963
I,500,1.775148,-0.009472
I,501,1.778698,-0.009311
I,502,1.782249,-0.009148
I,503,1.785799,-0.00898
I,504,1.789349,-0.008807
I,505,1.792899,-0.008631
I,506,1.79645,-0.008453
I,507,1.8,-0.008272
I,508,1.80355,-0.008088
I,509,1.807101,-0.0079
I,510,1.810651,-0.007707
I,511,1.814201,-0.007512
I,512,1.817751,-0.007315
I,513,1.821302,-0.007115
I,514,1.824852,-0.006912
I,515,1.828402,-0.006705
I,516,1.831953,-0.006495
I,517,1.835503,-0.006282
I,518,1.839053,-0.006068
I,519,1.842604,-0.005851
I,520,1.846154,-0.005631
I,521,1.849704,-0.005407
I,522,1.853254,-0.005181
I,523,1.856805,-0.004953
I,524,1.860355,-0.004723
I,525,1.863905,-0.00449
I,526,1.867456,-0.004255
I,527,1.871006,-0.004016
I,528,1.874556,-0.003776
I,529,1.878107,-0.003534
I,530,1.881657,-0.00329
I,531,1.885207,-0.003044
I,532,1.888757,-0.002796
I,533,1.892308,-0.002545
I,534,1.895858,-0.002293
I,535,1.899408,-0.002039
I,536,1.902959,-0.001784
I,537,1.906509,-0.001527
I,538,1.910059,-0.001267
I,539,1.913609,-0.001006
I,540,1.91716,-0.000744
I,541,1.92071,-0.000482
I,542,1.92426,-0.000217
I,543,1.927811,4.9e-05
I,544,1.931361,0.000317
I,545,1.934911,0.000585
I,546,1.938462,0.000854
I,547,1.942012,0.001124
I,548,1.945562,0.001395
I,549,1.949112,0.001668
I,550,1.952663,0.001941
I,551,1.956213,0.002215
I,552,1.959763,0.002488
I,553,1.963314,0.002763
I,554,1.966864,0.003038
I,555,1.970414,0.003314
I,556,1.973964,0.00359
I,557,1.977515,0.003866
I,558,1.981065,0.004141
I,559,1.984615,0.004417
I,560,1.988166,0.004693
I,561,1.991716,0.00497
I,562,1.995266,0.005246
I,563,1.998817,0.005521
I,564,2.002367,0.005796
I,565,2.005917,0.00607
I,566,2.009467,0.006345
I,567,2.013018,0.006618
I,568,2.016568,0.006891
I,569,2.020118,0.007163
I,570,2.023669,0.007433
I,571,2.027219,0.007703
I,572,2.030769,0.007972
I,573,2.03432,0.00824
I,574,2.03787,0.008506
I,575,2.04142,0.008771
I,576,2.04497,0.009034
I,577,2.048521,0.009296
I,578,2.052071,0.009557
I,579,2.055621,0.009815
I,580,2.059172,0.010072
I,581,2.062722,0.010326
I,582,2.066272,0.010579
I,583,2.069822,0.010829
I,584,2.073373,0.011078
I,585,2.076923,0.011323
I,586,2.080473,0.011566
I,587,2.084024,0.011807
I,588,2.087574,0.012045
I,589,2.091124,0.01228
I,590,2.094675,0.012513
I,591,2.098225,0.012742
I,592,2.101775,0.012968
I,593,2.105325,0.01319
I,594,2.108876,0.01341
I,595,2.112426,0.013626
I,596,2.115976,0.013839
I,597,2.119527,0.014048
I,598,2.123077,0.014253
I,599,2.126627,0.014454
I,600,2.130178,0.014651
I,601,2.133728,0.014844
I,602,2.137278,0.015033
I,603,2.140828,0.015217
I,604,2.144379,0.015397
I,605,2.147929,0.015573
I,606,2.151479,0.015743
I,607,2.15503,0.015909
I,608,2.15858,0.01607
I,609,2.16213,0.016226
I,610,2.16568,0.016376
I,611,2.169231,0.016522
I,612,2.172781,0.016662
I,613,2.176331,0.016796
I,614,2.179882,0.016924
I,615,2.183432,0.017047
I,616,2.186982,0.017164
I,617,2.190533,0.017274
I,618,2.194083,0.017379
I,619,2.197633,0.017477
I,620,2.201183,0.017569
I,621,2.204734,0.017654
I,622,2.208284,0.017732
I,623,2.211834,0.017803
I,624,2.215385,0.017868
I,625,2.218935,0.017925
I,626,2.222485,0.017975
I,627,2.226036,0.018018
I,628,2.229586,0.018053
I,629,2.233136,0.018081
I,630,2.236686,0.0181
I,631,2.240237,0.018112
I,632,2.243787,0.018116
I,633,2.247337,0.018111
I,634,2.250888,0.018099
I,635,2.254438,0.018076
I,636,2.257988,0.018046
I,637,2.261538,0.018013
I,638,2.265089,0.017947
I,639,2.268639,0.017919
I,640,2.272189,0.01802
I,641,2.27574,0.018162
I,642,2.27929,0.018277
I,643,2.28284,0.018393
I,644,2.286391,0.018506
I,645,2.289941,0.018612
I,646,2.293491,0.018714
I,647,2.297041,0.018812
I,648,2.300592,0.018904
I,649,2.304142,0.01899
I,650,2.307692,0.019072
I,651,2.311243,0.019148
I,652,2.314793,0.019219
I,653,2.318343,0.019284
I,654,2.321893,0.019343
I,655,2.325444,0.019396
I,656,2.328994,0.019443
I,657,2.332544,0.019484
I,658,2.336095,0.019519
I,659,2.339645,0.019547
I,660,2.343195,0.019569
I,661,2.346746,0.019583
I,662,2.350296,0.019591
I,663,2.353846,0.019592
I,664,2.357396,0.019586
I,665,2.360947,0.019573
I,666,2.364497,0.019552
I,667,2.368047,0.019523
I,668,2.371598,0.019487
I,669,2.375148,0.019443
I,670,2.378698,0.019392
I,671,2.382249,0.019332
I,672,2.385799,0.019263
I,673,2.389349,0.019187
I,674,2.392899,0.019101
I,675,2.39645,0.019008
II,0,0.0,0.120532
II,1,0.00355,0.111251
II,2,0.007101,0.13784
II,3,0.010651,0.098222
II,4,0.014201,-0.021122
II,5,0.017751,-0.065099
II,6,0.021302,-0.045269
II,7,0.024852,-0.047441
II,8,0.028402,-0.045094
II,9,0.031953,-0.037597
II,10,0.035503,-0.037642
II,11,0.039053,-0.039248
II,12,0.042604,-0.044642
II,13,0.046154,-0.049202
II,14,0.049704,-0.048103
II,15,0.053254,-0.044796
II,16,0.056805,-0.044458
II,17,0.060355,-0.047146
II,18,0.063905,-0.049098
II,19,0.067456,-0.047889
II,20,0.071006,-0.044302
II,21,0.074556,-0.042142
II,22,0.078107,-0.045453
II,23,0.081657,-0.052098
II,24,0.085207,-0.055156
II,25,0.088757,-0.052952
II,26,0.092308,-0.049824
II,27,0.095858,-0.048814
II,28,0.099408,-0.050504
II,29,0.102959,-0.054603
II,30,0.106509,-0.058401
II,31,0.110059,-0.058014
II,32,0.113609,-0.053416
II,33,0.11716,-0.0492
II,34,0.12071,-0.048695
II,35,0.12426,-0.049528
II,36,0.127811,-0.048187
II,37,0.131361,-0.045587
II,38,0.134911,-0.044131
II,39,0.138462,-0.04491
II,40,0.142012,-0.048863
II,41,0.145562,-0.052981
II,42,0.149112,-0.051024
II,43,0.152663,-0.04473
II,44,0.156213,-0.041735
II,45,0.159763,-0.042785
II,46,0.163314,-0.043931
II,47,0.166864,-0.042975
II,48,0.170414,-0.038638
II,49,0.173964,-0.032739
II,50,0.177515,-0.030555
II,51,0.181065,-0.033968
II,52,0.184615,-0.038491
II,53,0.188166,-0.039601
II,54,0.191716,-0.037596
II,55,0.195266,-0.034263
II,56,0.198817,-0.030575
II,57,0.202367,-0.026753
II,58,0.205917,-0.0221
II,59,0.209467,-0.018339
II,60,0.213018,-0.018915
II,61,0.216568,-0.022816
II,62,0.220118,-0.025767
II,63,0.223669,-0.026301
II,64,0.227219,-0.025409
II,65,0.230769,-0.023839
II,66,0.23432,-0.022609
II,67,0.23787,-0.022611
II,68,0.24142,-0.023234
II,69,0.24497,-0.023203
II,70,0.248521,-0.022164
II,71,0.252071,-0.02055
II,72,0.255621,-0.01985
II,73,0.259172,-0.022467
II,74,0.262722,-0.027076
II,75,0.266272,-0.028961
II,76,0.269822,-0.027855
II,77,0.273373,-0.026414
II,78,0.276923,-0.023853
II,79,0.280473,-0.019783
II,80,0.284024,-0.017762
II,81,0.287574,-0.019204
II,82,0.291124,-0.019987
II,83,0.294675,-0.017103
II,84,0.298225,-0.012339
II,85,0.301775,-0.008249
II,86,0.305325,-0.005922
II,87,0.308876,-0.004849
II,88,0.312426,-0.003947
II,89,0.315976,-0.003096
II,90,0.319527,-0.003153
II,91,0.323077,-0.005621
II,92,0.326627,-0.009431
II,93,0.330178,-0.010913
II,94,0.333728,-0.009967
II,95,0.337278,-0.009477
II,96,0.340828,-0.009404
II,97,0.344379,-0.00714
II,98,0.347929,-0.002247
II,99,0.351479,0.000837
II,100,0.35503,-0.003051
II,101,0.35858,-0.011057
II,102,0.36213,-0.015733
II,103,0.36568,-0.015762
II,104,0.369231,-0.012513
II,105,0.372781,-0.007743
II,106,0.376331,-0.007005
II,107,0.379882,-0.010806
II,108,0.383432,-0.013236
II,109,0.386982,-0.01298
II,110,0.390533,-0.012311
II,111,0.394083,-0.011622
II,112,0.397633,-0.010964
II,113,0.401183,-0.010836
II,114,0.404734,-0.01066
II,115,0.408284,-0.010344
II,116,0.411834,-0.012212
II,117,0.415385,-0.015517
II,118,0.418935,-0.015187
II,119,0.422485,-0.010801
II,120,0.426036,-0.005916
II,121,0.429586,-0.001378
II,122,0.433136,0.003899
II,123,0.436686,0.011233
II,124,0.440237,0.020376
II,125,0.443787,0.029485
II,126,0.447337,0.036452
II,127,0.450888,0.036409
II,128,0.454438,0.027239
II,129,0.457988,0.01491
II,130,0.461538,0.003243
II,131,0.465089,-0.007147
II,132,0.468639,-0.012552
II,133,0.472189,-0.012344
II,134,0.47574,-0.009029
II,135,0.47929,-0.004671
II,136,0.48284,-0.001877
II,137,0.486391,0.000652
II,138,0.489941,0.00505
II,139,0.493491,0.00786
II,140,0.497041,0.006038
II,141,0.500592,0.002167
II,142,0.504142,0.000155
II,143,0.507692,0.000236
II,144,0.511243,0.000618
II,145,0.514793,0.000953
II,146,0.518343,0.001437
II,147,0.521893,0.001817
II,148,0.525444,0.002047
II,149,0.528994,0.002241
II,150,0.532544,0.002506
II,151,0.536095,0.00289
II,152,0.539645,0.003311
II,153,0.543195,0.003652
II,154,0.546746,0.003869
II,155,0.550296,0.004062
II,156,0.553846,0.004316
II,157,0.557396,0.004651
II,158,0.560947,0.005124
II,159,0.564497,0.005318
II,160,0.568047,0.005581
II,161,0.571598,0.008106
II,162,0.575148,0.012527
II,163,0.578698,0.015243
II,164,0.582249,0.015683
II,165,0.585799,0.015842
II,166,0.589349,0.01608
II,167,0.592899,0.016193
II,168,0.59645,0.016446
II,169,0.6,0.016807
II,170,0.60355,0.017153
II,171,0.607101,0.017407
II,172,0.610651,0.017442
II,173,0.614201,0.017691
II,174,0.617751,0.017907
II,175,0.621302,0.015908
II,176,0.624852,0.01201
II,177,0.628402,0.009883
II,178,0.631953,0.009774
II,179,0.635503,0.01011
II,180,0.639053,0.012696
II,181,0.642604,0.017254
II,182,0.646154,0.019854
II,183,0.649704,0.019989
II,184,0.653254,0.019929
II,185,0.656805,0.020197
II,186,0.660355,0.020509
II,187,0.663905,0.020831
II,188,0.667456,0.020989
II,189,0.671006,0.020989
II,190,0.674556,0.021049
II,191,0.678107,0.021297
II,192,0.681657,0.021661
II,193,0.685207,0.021926
II,194,0.688757,0.021973
II,195,0.692308,0.021927
II,196,0.695858,0.022021
II,197,0.699408,0.022336
II,198,0.702959,0.022699
II,199,0.706509,0.022869
II,200,0.710059,0.022812
II,201,0.713609,0.02275
II,202,0.71716,0.022913
II,203,0.72071,0.023295
II,204,0.72426,0.023605
II,205,0.727811,0.023652
II,206,0.731361,0.023539
II,207,0.734911,0.023421
II,208,0.738462,0.023813
II,209,0.742012,0.024158
II,210,0.745562,0.021994
II,211,0.749112,0.017798
II,212,0.752663,0.015118
II,213,0.756213,0.015172
II,214,0.759763,0.018033
II,215,0.763314,0.022534
II,216,0.766864,0.025007
II,217,0.770414,0.024803
II,218,0.773964,0.024488
II,219,0.777515,0.02479
II,220,0.781065,0.025149
II,221,0.784615,0.025699
II,222,0.788166,0.027456
II,223,0.791716,0.032067
II,224,0.795266,0.03377
II,225,0.798817,0.022908
II,226,0.802367,0.009423
II,227,0.805917,0.009427
II,228,0.809467,0.017324
II,229,0.813018,0.022933
II,230,0.816568,0.025374
II,231,0.820118,0.025939
II,232,0.823669,0.026176
II,233,0.827219,0.026274
II,234,0.830769,0.025892
II,235,0.83432,0.025642
II,236,0.83787,0.025819
II,237,0.84142,0.026234
II,238,0.84497,0.026495
II,239,0.848521,0.026358
II,240,0.852071,0.026029
II,241,0.855621,0.025906
II,242,0.859172,0.026142
II,243,0.862722,0.026497
II,244,0.866272,0.026611
II,245,0.869822,0.026408
II,246,0.873373,0.026126
II,247,0.876923,0.026103
II,248,0.880473,0.026386
II,249,0.884024,0.026573
II,250,0.887574,0.026702
II,251,0.891124,0.026405
II,252,0.894675,0.023832
II,253,0.898225,0.019691
II,254,0.901775,0.017567
II,255,0.905325,0.01769
II,256,0.908876,0.01776
II,257,0.912426,0.017445
II,258,0.915976,0.017308
II,259,0.919527,0.01737
II,260,0.923077,0.017535
II,261,0.926627,0.017759
II,262,0.930178,0.017581
II,263,0.933728,0.017333
II,264,0.937278,0.01966
II,265,0.940828,0.023843
II,266,0.944379,0.024037
II,267,0.947929,0.020036
II,268,0.951479,0.017425
II,269,0.95503,0.017161
II,270,0.95858,0.017208
II,271,0.96213,0.017099
II,272,0.96568,0.017404
II,273,0.969231,0.019829
II,274,0.972781,0.023736
II,275,0.976331,0.025995
II,276,0.979882,0.025828
II,277,0.983432,0.023607
II,278,0.986982,0.01962
II,279,0.990533,0.014853
II,280,0.994083,0.010379
II,281,0.997633,0.007901
II,282,1.001183,0.007734
II,283,1.004734,0.00803
II,284,1.008284,0.008096
II,285,1.011834,0.008074
II,286,1.015385,0.007647
II,287,1.018935,0.007716
II,288,1.022485,0.007547
II,289,1.026036,0.003961
II,290,1.029586,-0.000553
II,291,1.033136,-0.001613
II,292,1.036686,-0.001333
II,293,1.040237,-0.001637
II,294,1.043787,-0.001639
II,295,1.047337,-0.001258
II,296,1.050888,-0.00061
II,297,1.054438,-4.4e-05
II,298,1.057988,0.000422
II,299,1.061538,0.001232
II,300,1.065089,0.002239
II,301,1.068639,0.003161
II,302,1.072189,0.003759
II,303,1.07574,0.003813
II,304,1.07929,0.004063
II,305,1.08284,0.005243
II,306,1.086391,0.006617
II,307,1.089941,0.00928
II,308,1.093491,0.015527
II,309,1.097041,0.024077
II,310,1.100592,0.033252
II,311,1.104142,0.039594
II,312,1.107692,0.03637
II,313,1.111243,0.026072
II,314,1.114793,0.01617
II,315,1.118343,0.006268
II,316,1.121893,-0.003867
II,317,1.125444,-0.011077
II,318,1.128994,-0.013543
II,319,1.132544,-0.012392
II,320,1.136095,-0.011727
II,321,1.139645,-0.012288
II,322,1.143195,-0.012173
II,323,1.146746,-0.011888
II,324,1.150296,-0.012068
II,325,1.153846,-0.012323
II,326,1.157396,-0.012457
II,327,1.160947,-0.012471
II,328,1.164497,-0.012409
II,329,1.168047,-0.012413
II,330,1.171598,-0.012563
II,331,1.175148,-0.012748
II,332,1.178698,-0.012824
II,333,1.182249,-0.012768
II,334,1.185799,-0.01274
II,335,1.189349,-0.012957
II,336,1.192899,-0.013278
II,337,1.19645,-0.01309
II,338,1.2,-0.012271
II,339,1.20355,-0.011368
II,340,1.207101,-0.010552
II,341,1.210651,-0.009757
II,342,1.214201,-0.008995
II,343,1.217751,-0.008061
II,344,1.221302,-0.007234
II,345,1.224852,-0.006722
II,346,1.228402,-0.005738
II,347,1.231953,-0.005032
II,348,1.235503,-0.004824
II,349,1.239053,-0.00242
II,350,1.242604,0.001451
II,351,1.246154,0.00466
II,352,1.249704,0.006978
II,353,1.253254,0.007524
II,354,1.256805,0.006888
II,355,1.260355,0.002966
II,356,1.263905,-0.003922
II,357,1.267456,-0.005955
II,358,1.271006,-0.002573
II,359,1.274556,0.000725
II,360,1.278107,0.00376
II,361,1.281657,0.00813
II,362,1.285207,0.010372
II,363,1.288757,0.008999
II,364,1.292308,0.00723
II,365,1.295858,-0.000373
II,366,1.299408,-0.012429
II,367,1.302959,-0.015708
II,368,1.306509,-0.014156
II,369,1.310059,-0.015547
II,370,1.313609,-0.015212
II,371,1.31716,-0.011703
II,372,1.32071,-0.008016
II,373,1.32426,-0.005753
II,374,1.327811,-0.003332
II,375,1.331361,0.000461
II,376,1.334911,0.002756
II,377,1.338462,0.002987
II,378,1.342012,0.003352
II,379,1.345562,0.003579
II,380,1.349112,0.003076
II,381,1.352663,0.002668
II,382,1.356213,0.002662
II,383,1.359763,0.002823
II,384,1.363314,0.002938
II,385,1.366864,0.002884
II,386,1.370414,0.002722
II,387,1.373964,0.002504
II,388,1.377515,0.002684
II,389,1.381065,0.00281
II,390,1.384615,0.000459
II,391,1.388166,-0.003728
II,392,1.391716,-0.006326
II,393,1.395266,-0.007462
II,394,1.398817,-0.007621
II,395,1.402367,-0.006437
II,396,1.405917,-0.00589
II,397,1.409467,-0.006313
II,398,1.413018,-0.00637
II,399,1.416568,-0.006237
II,400,1.420118,-0.006159
II,401,1.423669,-0.006056
II,402,1.427219,-0.006107
II,403,1.430769,-0.006295
II,404,1.43432,-0.006392
II,405,1.43787,-0.006293
II,406,1.44142,-0.00611
II,407,1.44497,-0.006057
II,408,1.448521,-0.006222
II,409,1.452071,-0.006433
II,410,1.455621,-0.006463
II,411,1.459172,-0.006289
II,412,1.462722,-0.00611
II,413,1.466272,-0.006175
II,414,1.469822,-0.006434
II,415,1.473373,-0.006525
II,416,1.476923,-0.006396
II,417,1.480473,-0.006142
II,418,1.484024,-0.005765
II,419,1.487574,-0.005608
II,420,1.491124,-0.005845
II,421,1.494675,-0.006045
II,422,1.498225,-0.005879
II,423,1.501775,-0.005576
II,424,1.505325,-0.005511
II,425,1.508876,-0.005704
II,426,1.512426,-0.005889
II,427,1.515976,-0.005827
II,428,1.519527,-0.005529
II,429,1.523077,-0.005274
II,430,1.526627,-0.005307
II,431,1.530178,-0.00555
II,432,1.533728,-0.00568
II,433,1.537278,-0.005492
II,434,1.540828,-0.005135
II,435,1.544379,-0.004954
II,436,1.547929,-0.005105
II,437,1.551479,-0.005369
II,438,1.55503,-0.005384
II,439,1.55858,-0.005073
II,440,1.56213,-0.004703
II,441,1.56568,-0.004636
II,442,1.569231,-0.004925
II,443,1.572781,-0.005076
II,444,1.576331,-0.005038
II,445,1.579882,-0.004627
II,446,1.583432,-0.001859
II,447,1.586982,0.002233
II,448,1.590533,0.003961
II,449,1.594083,0.003892
II,450,1.597633,0.001496
II,451,1.601183,-0.002997
II,452,1.604734,-0.004466
II,453,1.608284,-0.003871
II,454,1.611834,-0.004314
II,455,1.615385,-0.004491
II,456,1.618935,-0.003934
II,457,1.622485,-0.003033
II,458,1.626036,-0.002079
II,459,1.629586,0.000439
II,460,1.633136,0.004204
II,461,1.636686,0.005448
II,462,1.640237,0.005346
II,463,1.643787,0.005986
II,464,1.647337,0.005653
II,465,1.650888,0.004177
II,466,1.654438,0.001078
II,467,1.657988,-0.002581
II,468,1.661538,-0.00321
II,469,1.665089,-0.002445
II,470,1.668639,-0.002645
II,471,1.672189,-0.003016
II,472,1.67574,-0.003531
II,473,1.67929,-0.004096
II,474,1.68284,-0.006414
II,475,1.686391,-0.010287
II,476,1.689941,-0.011698
II,477,1.693491,-0.011352
II,478,1.697041,-0.0115
II,479,1.700592,-0.011048
II,480,1.704142,-0.010093
II,481,1.707692,-0.009752
II,482,1.711243,-0.009851
II,483,1.714793,-0.009746
II,484,1.718343,-0.009201
II,485,1.721893,-0.008915
II,486,1.725444,-0.00904
II,487,1.728994,-0.008481
II,488,1.732544,-0.008121
II,489,1.736095,-0.00719
II,490,1.739645,-0.001475
II,491,1.743195,0.008004
II,492,1.746746,0.017327
II,493,1.750296,0.025614
II,494,1.753846,0.03213
II,495,1.757396,0.034534
II,496,1.760947,0.027819
II,497,1.764497,0.013247
II,498,1.768047,0.003123
II,499,1.771598,-0.001027
II,500,1.775148,-0.009328
II,501,1.778698,-0.01775
II,502,1.782249,-0.018511
II,503,1.785799,-0.017267
II,504,1.789349,-0.017821
II,505,1.792899,-0.017448
II,506,1.79645,-0.015921
II,507,1.8,-0.01416
II,508,1.80355,-0.01231
II,509,1.807101,-0.010883
II,510,1.810651,-0.009921
II,511,1.814201,-0.009175
II,512,1.817751,-0.008788
II,513,1.821302,-0.008288
II,514,1.824852,-0.007418
II,515,1.828402,-0.007291
II,516,1.831953,-0.008251
II,517,1.835503,-0.008652
II,518,1.839053,-0.008403
II,519,1.842604,-0.010445
II,520,1.846154,-0.014201
II,521,1.849704,-0.014366
II,522,1.853254,-0.010565
II,523,1.856805,-0.008242
II,524,1.860355,-0.008367
II,525,1.863905,-0.007098
II,526,1.867456,-0.004632
II,527,1.871006,-0.002408
II,528,1.874556,0.000195
II,529,1.878107,0.001234
II,530,1.881657,0.000826
II,531,1.885207,0.001521
II,532,1.888757,0.001892
II,533,1.892308,0.001013
II,534,1.895858,0.001031
II,535,1.899408,0.001472
II,536,1.902959,0.001465
II,537,1.906509,0.00382
II,538,1.910059,0.008021
II,539,1.913609,0.010067
II,540,1.91716,0.009869
II,541,1.92071,0.009626
II,542,1.92426,0.00929
II,543,1.927811,0.006237
II,544,1.931361,0.00181
II,545,1.934911,0.00047
II,546,1.938462,0.000559
II,547,1.942012,0.000527
II,548,1.945562,0.001972
II,549,1.949112,0.003608
II,550,1.952663,0.005884
II,551,1.956213,0.008945
II,552,1.959763,0.009791
II,553,1.963314,0.009451
II,554,1.966864,0.009823
II,555,1.970414,0.009846
II,556,1.973964,0.009448
II,557,1.977515,0.009119
II,558,1.981065,0.008979
II,559,1.984615,0.009247
II,560,1.988166,0.009311
II,561,1.991716,0.009246
II,562,1.995266,0.011206
II,563,1.998817,0.015023
II,564,2.002367,0.017333
II,565,2.005917,0.017589
II,566,2.009467,0.01756
II,567,2.013018,0.0174
II,568,2.016568,0.016917
II,569,2.020118,0.016558
II,570,2.023669,0.016616
II,571,2.027219,0.016727
II,572,2.030769,0.016682
II,573,2.03432,0.018697
II,574,2.03787,0.024779
II,575,2.04142,0.031107
II,576,2.04497,0.031143
II,577,2.048521,0.02461
II,578,2.052071,0.017944
II,579,2.055621,0.014978
II,580,2.059172,0.014604
II,581,2.062722,0.016851
II,582,2.066272,0.02093
II,583,2.069822,0.023399
II,584,2.073373,0.023048
II,585,2.076923,0.020018
II,586,2.080473,0.015596
II,587,2.084024,0.012963
II,588,2.087574,0.012969
II,589,2.091124,0.015172
II,590,2.094675,0.018896
II,591,2.098225,0.020694
II,592,2.101775,0.01806
II,593,2.105325,0.013613
II,594,2.108876,0.011291
II,595,2.112426,0.010716
II,596,2.115976,0.010337
II,597,2.119527,0.012107
II,598,2.123077,0.016001
II,599,2.126627,0.018202
II,600,2.130178,0.017995
II,601,2.133728,0.017394
II,602,2.137278,0.016874
II,603,2.140828,0.016346
II,604,2.144379,0.01605
II,605,2.147929,0.0158
II,606,2.151479,0.015362
II,607,2.15503,0.014855
II,608,2.15858,0.014118
II,609,2.16213,0.013705
II,610,2.16568,0.015726
II,611,2.169231,0.019535
II,612,2.172781,0.021362
II,613,2.176331,0.020756
II,614,2.179882,0.020011
II,615,2.183432,0.019595
II,616,2.186982,0.019166
II,617,2.190533,0.018709
II,618,2.194083,0.017988
II,619,2.197633,0.017369
II,620,2.201183,0.016654
II,621,2.204734,0.013774
II,622,2.208284,0.009111
II,623,2.211834,0.006139
II,624,2.215385,0.005333
II,625,2.218935,0.004666
II,626,2.222485,0.003888
II,627,2.226036,0.003413
II,628,2.229586,0.002672
II,629,2.233136,0.002068
II,630,2.236686,0.003484
II,631,2.240237,0.006936
II,632,2.243787,0.010863
II,633,2.247337,0.014561
II,634,2.250888,0.016
II,635,2.254438,0.012937
II,636,2.257988,0.007714
II,637,2.261538,0.004547
II,638,2.265089,0.003778
II,639,2.268639,0.003028
II,640,2.272189,0.002074
II,641,2.27574,0.003609
II,642,2.27929,0.00676
II,643,2.28284,0.005869
II,644,2.286391,0.000932
II,645,2.289941,-0.002436
II,646,2.293491,-0.003416
II,647,2.297041,-0.004355
II,648,2.300592,-0.005429
II,649,2.304142,-0.006312
II,650,2.307692,-0.00724
II,651,2.311243,-0.00835
II,652,2.314793,-0.009323
II,653,2.318343,-0.010495
II,654,2.321893,-0.0138
II,655,2.325444,-0.019125
II,656,2.328994,-0.022524
II,657,2.332544,-0.021385
II,658,2.336095,-0.018243
II,659,2.339645,-0.017057
II,660,2.343195,-0.018086
II,661,2.346746,-0.019422
II,662,2.350296,-0.02054
II,663,2.353846,-0.021912
II,664,2.357396,-0.022988
II,665,2.360947,-0.021863
II,666,2.364497,-0.018841
II,667,2.368047,-0.017939
II,668,2.371598,-0.021605
II,669,2.375148,-0.027165
II,670,2.378698,-0.030691
II,671,2.382249,-0.029822
II,672,2.385799,-0.024125
II,673,2.389349,-0.01781
II,674,2.392899,-0.012181
II,675,2.39645,-0.003076
III,0,0.0,-0.055252
III,1,0.00355,-0.05386
III,2,0.007101,-0.062117
III,3,0.010651,-0.049036
III,4,0.014201,-0.008568
III,5,0.017751,0.015636
III,6,0.021302,0.020705
III,7,0.024852,0.027002
III,8,0.028402,0.029476
III,9,0.031953,0.028267
III,10,0.035503,0.029129
III,11,0.039053,0.031
III,12,0.042604,0.03187
III,13,0.046154,0.032243
III,14,0.049704,0.032848
III,15,0.053254,0.033848
III,16,0.056805,0.032991
III,17,0.060355,0.030028
III,18,0.063905,0.029189
III,19,0.067456,0.030169
III,20,0.071006,0.031299
III,21,0.074556,0.033537
III,22,0.078107,0.035485
III,23,0.081657,0.035933
III,24,0.085207,0.035626
III,25,0.088757,0.035402
III,26,0.092308,0.03616
III,27,0.095858,0.03706
III,28,0.099408,0.036578
III,29,0.102959,0.035127
III,30,0.106509,0.033885
III,31,0.110059,0.034099
III,32,0.113609,0.036493
III,33,0.11716,0.03916
III,34,0.12071,0.040316
III,35,0.12426,0.042429
III,36,0.127811,0.046672
III,37,0.131361,0.049881
III,38,0.134911,0.051407
III,39,0.138462,0.051791
III,40,0.142012,0.04862
III,41,0.145562,0.043524
III,42,0.149112,0.043654
III,43,0.152663,0.050716
III,44,0.156213,0.057561
III,45,0.159763,0.058745
III,46,0.163314,0.057059
III,47,0.166864,0.056736
III,48,0.170414,0.058583
III,49,0.173964,0.061625
III,50,0.177515,0.063468
III,51,0.181065,0.062687
III,52,0.184615,0.061083
III,53,0.188166,0.061234
III,54,0.191716,0.063901
III,55,0.195266,0.067032
III,56,0.198817,0.068062
III,57,0.202367,0.068696
III,58,0.205917,0.071375
III,59,0.209467,0.074884
III,60,0.213018,0.078885
III,61,0.216568,0.081963
III,62,0.220118,0.080802
III,63,0.223669,0.076948
III,64,0.227219,0.073049
III,65,0.230769,0.071584
III,66,0.23432,0.074561
III,67,0.23787,0.076653
III,68,0.24142,0.074099
III,69,0.24497,0.071368
III,70,0.248521,0.072159
III,71,0.252071,0.076024
III,72,0.255621,0.079783
III,73,0.259172,0.07983
III,74,0.262722,0.076597
III,75,0.266272,0.074369
III,76,0.269822,0.076322
III,77,0.273373,0.081197
III,78,0.276923,0.083918
III,79,0.280473,0.081702
III,80,0.284024,0.078036
III,81,0.287574,0.077084
III,82,0.291124,0.080895
III,83,0.294675,0.088694
III,84,0.298225,0.093844
III,85,0.301775,0.092311
III,86,0.305325,0.089472
III,87,0.308876,0.090521
III,88,0.312426,0.094709
III,89,0.315976,0.098745
III,90,0.319527,0.098258
III,91,0.323077,0.09245
III,92,0.326627,0.087668
III,93,0.330178,0.087921
III,94,0.333728,0.090437
III,95,0.337278,0.093011
III,96,0.340828,0.094201
III,97,0.344379,0.092468
III,98,0.347929,0.091518
III,99,0.351479,0.095955
III,100,0.35503,0.099788
III,101,0.35858,0.096038
III,102,0.36213,0.088905
III,103,0.36568,0.084176
III,104,0.369231,0.085413
III,105,0.372781,0.092637
III,106,0.376331,0.098172
III,107,0.379882,0.095685
III,108,0.383432,0.088283
III,109,0.386982,0.084439
III,110,0.390533,0.088835
III,111,0.394083,0.097513
III,112,0.397633,0.100968
III,113,0.401183,0.094789
III,114,0.404734,0.086857
III,115,0.408284,0.085572
III,116,0.411834,0.089214
III,117,0.415385,0.092679
III,118,0.418935,0.091731
III,119,0.422485,0.086181
III,120,0.426036,0.083036
III,121,0.429586,0.088104
III,122,0.433136,0.100584
III,123,0.436686,0.113149
III,124,0.440237,0.117554
III,125,0.443787,0.116501
III,126,0.447337,0.120071
III,127,0.450888,0.134765
III,128,0.454438,0.147615
III,129,0.457988,0.129665
III,130,0.461538,0.09605
III,131,0.465089,0.080272
III,132,0.468639,0.071627
III,133,0.472189,0.096903
III,134,0.47574,0.095414
III,135,0.47929,0.072919
III,136,0.48284,0.169331
III,137,0.486391,-0.047135
III,138,0.489941,-0.579787
III,139,0.493491,-0.7121
III,140,0.497041,-0.686618
III,141,0.500592,-0.549349
III,142,0.504142,-0.012327
III,143,0.507692,0.192066
III,144,0.511243,0.049618
III,145,0.514793,0.153592
III,146,0.518343,-0.004015
III,147,0.521893,-0.548331
III,148,0.525444,-0.735958
III,149,0.528994,-0.646132
III,150,0.532544,-0.664377
III,151,0.536095,-0.687921
III,152,0.539645,-0.692214
III,153,0.543195,-0.698992
III,154,0.546746,-0.674651
III,155,0.550296,-0.666452
III,156,0.553846,-0.668185
III,157,0.557396,-0.625472
III,158,0.560947,-0.541232
III,159,0.564497,-0.30387
III,160,0.568047,0.024535
III,161,0.571598,0.123251
III,162,0.575148,0.096749
III,163,0.578698,0.143475
III,164,0.582249,0.13895
III,165,0.585799,0.089131
III,166,0.589349,0.082555
III,167,0.592899,0.094234
III,168,0.59645,0.101793
III,169,0.6,0.102499
III,170,0.60355,0.093713
III,171,0.607101,0.085202
III,172,0.610651,0.086722
III,173,0.614201,0.095593
III,174,0.617751,0.101784
III,175,0.621302,0.098364
III,176,0.624852,0.089195
III,177,0.628402,0.084383
III,178,0.631953,0.08882
III,179,0.635503,0.097067
III,180,0.639053,0.099689
III,181,0.642604,0.093766
III,182,0.646154,0.085875
III,183,0.649704,0.084508
III,184,0.653254,0.090672
III,185,0.656805,0.097057
III,186,0.660355,0.096368
III,187,0.663905,0.089346
III,188,0.667456,0.083658
III,189,0.671006,0.085221
III,190,0.674556,0.091762
III,191,0.678107,0.095619
III,192,0.681657,0.092348
III,193,0.685207,0.085497
III,194,0.688757,0.082411
III,195,0.692308,0.086025
III,196,0.695858,0.091805
III,197,0.699408,0.092994
III,198,0.702959,0.088121
III,199,0.706509,0.082421
III,200,0.710059,0.081843
III,201,0.713609,0.086488
III,202,0.71716,0.090714
III,203,0.72071,0.089538
III,204,0.72426,0.084086
III,205,0.727811,0.080132
III,206,0.731361,0.081596
III,207,0.734911,0.086292
III,208,0.738462,0.088573
III,209,0.742012,0.085644
III,210,0.745562,0.080482
III,211,0.749112,0.078521
III,212,0.752663,0.081308
III,213,0.756213,0.085179
III,214,0.759763,0.085853
III,215,0.763314,0.082888
III,216,0.766864,0.081622
III,217,0.770414,0.085338
III,218,0.773964,0.089945
III,219,0.777515,0.092601
III,220,0.781065,0.092396
III,221,0.784615,0.088122
III,222,0.788166,0.084125
III,223,0.791716,0.085049
III,224,0.795266,0.08618
III,225,0.798817,0.080662
III,226,0.802367,0.071678
III,227,0.805917,0.067681
III,228,0.809467,0.07063
III,229,0.813018,0.077489
III,230,0.816568,0.084415
III,231,0.820118,0.086196
III,232,0.823669,0.082456
III,233,0.827219,0.078805
III,234,0.830769,0.078122
III,235,0.83432,0.07921
III,236,0.83787,0.079616
III,237,0.84142,0.077124
III,238,0.84497,0.072818
III,239,0.848521,0.070118
III,240,0.852071,0.070261
III,241,0.855621,0.071763
III,242,0.859172,0.072165
III,243,0.862722,0.069925
III,244,0.866272,0.066898
III,245,0.869822,0.06618
III,246,0.873373,0.067891
III,247,0.876923,0.06952
III,248,0.880473,0.068837
III,249,0.884024,0.066137
III,250,0.887574,0.063924
III,251,0.891124,0.0641
III,252,0.894675,0.065852
III,253,0.898225,0.066649
III,254,0.901775,0.065096
III,255,0.905325,0.062441
III,256,0.908876,0.061109
III,257,0.912426,0.061982
III,258,0.915976,0.06347
III,259,0.919527,0.06335
III,260,0.923077,0.061246
III,261,0.926627,0.058991
III,262,0.930178,0.058527
III,263,0.933728,0.05975
III,264,0.937278,0.060685
III,265,0.940828,0.059734
III,266,0.944379,0.057438
III,267,0.947929,0.055813
III,268,0.951479,0.056066
III,269,0.95503,0.057295
III,270,0.95858,0.05751
III,271,0.96213,0.055936
III,272,0.96568,0.053809
III,273,0.969231,0.052821
III,274,0.972781,0.05369
III,275,0.976331,0.055234
III,276,0.979882,0.054609
III,277,0.983432,0.051633
III,278,0.986982,0.048928
III,279,0.990533,0.045949
III,280,0.994083,0.042847
III,281,0.997633,0.042121
III,282,1.001183,0.041581
III,283,1.004734,0.039478
III,284,1.008284,0.038151
III,285,1.011834,0.038658
III,286,1.015385,0.039372
III,287,1.018935,0.03684
III,288,1.022485,0.031091
III,289,1.026036,0.026948
III,290,1.029586,0.026296
III,291,1.033136,0.027038
III,292,1.036686,0.027469
III,293,1.040237,0.02671
III,294,1.043787,0.024931
III,295,1.047337,0.023538
III,296,1.050888,0.023512
III,297,1.054438,0.024243
III,298,1.057988,0.024199
III,299,1.061538,0.023043
III,300,1.065089,0.02119
III,301,1.068639,0.018034
III,302,1.072189,0.014191
III,303,1.07574,0.012298
III,304,1.07929,0.014233
III,305,1.08284,0.019162
III,306,1.086391,0.024213
III,307,1.089941,0.028707
III,308,1.093491,0.033353
III,309,1.097041,0.038097
III,310,1.100592,0.044228
III,311,1.104142,0.048291
III,312,1.107692,0.04486
III,313,1.111243,0.036991
III,314,1.114793,0.026936
III,315,1.118343,0.015231
III,316,1.121893,0.007434
III,317,1.125444,0.002827
III,318,1.128994,-0.002725
III,319,1.132544,-0.006267
III,320,1.136095,-0.006091
III,321,1.139645,-0.004085
III,322,1.143195,-0.001527
III,323,1.146746,-0.000255
III,324,1.150296,-0.000322
III,325,1.153846,-0.000311
III,326,1.157396,-6.5e-05
III,327,1.160947,-0.001319
III,328,1.164497,-0.006411
III,329,1.168047,-0.011753
III,330,1.171598,-0.012615
III,331,1.175148,-0.011883
III,332,1.178698,-0.012551
III,333,1.182249,-0.01374
III,334,1.185799,-0.014714
III,335,1.189349,-0.015319
III,336,1.192899,-0.015127
III,337,1.19645,-0.012833
III,338,1.2,-0.009395
III,339,1.20355,-0.008174
III,340,1.207101,-0.008978
III,341,1.210651,-0.009309
III,342,1.214201,-0.009169
III,343,1.217751,-0.009526
III,344,1.221302,-0.010334
III,345,1.224852,-0.011478
III,346,1.228402,-0.012053
III,347,1.231953,-0.009797
III,348,1.235503,-0.005644
III,349,1.239053,-0.003861
III,350,1.242604,-0.004604
III,351,1.246154,-0.005673
III,352,1.249704,-0.008428
III,353,1.253254,-0.012654
III,354,1.256805,-0.015258
III,355,1.260355,-0.015988
III,356,1.263905,-0.014336
III,357,1.267456,-0.008688
III,358,1.271006,-0.00228
III,359,1.274556,-0.000118
III,360,1.278107,-0.00275
III,361,1.281657,-0.007698
III,362,1.285207,-0.013303
III,363,1.288757,-0.017991
III,364,1.292308,-0.020533
III,365,1.295858,-0.023296
III,366,1.299408,-0.027518
III,367,1.302959,-0.031167
III,368,1.306509,-0.03341
III,369,1.310059,-0.033705
III,370,1.313609,-0.032541
III,371,1.31716,-0.029905
III,372,1.32071,-0.024285
III,373,1.32426,-0.018313
III,374,1.327811,-0.014184
III,375,1.331361,-0.010293
III,376,1.334911,-0.008251
III,377,1.338462,-0.0108
III,378,1.342012,-0.015865
III,379,1.345562,-0.018738
III,380,1.349112,-0.01693
III,381,1.352663,-0.012885
III,382,1.356213,-0.010844
III,383,1.359763,-0.01125
III,384,1.363314,-0.012005
III,385,1.366864,-0.012481
III,386,1.370414,-0.012907
III,387,1.373964,-0.012963
III,388,1.377515,-0.013444
III,389,1.381065,-0.016263
III,390,1.384615,-0.021131
III,391,1.388166,-0.026326
III,392,1.391716,-0.030695
III,393,1.395266,-0.03324
III,394,1.398817,-0.033842
III,395,1.402367,-0.031856
III,396,1.405917,-0.028369
III,397,1.409467,-0.028646
III,398,1.413018,-0.032928
III,399,1.416568,-0.035626
III,400,1.420118,-0.036268
III,401,1.423669,-0.036736
III,402,1.427219,-0.034877
III,403,1.430769,-0.030837
III,404,1.43432,-0.028647
III,405,1.43787,-0.028995
III,406,1.44142,-0.029706
III,407,1.44497,-0.03017
III,408,1.448521,-0.030454
III,409,1.452071,-0.030529
III,410,1.455621,-0.030855
III,411,1.459172,-0.031256
III,412,1.462722,-0.03192
III,413,1.466272,-0.034692
III,414,1.469822,-0.038907
III,415,1.473373,-0.041497
III,416,1.476923,-0.04187
III,417,1.480473,-0.039984
III,418,1.484024,-0.036398
III,419,1.487574,-0.034222
III,420,1.491124,-0.0342
III,421,1.494675,-0.034525
III,422,1.498225,-0.034934
III,423,1.501775,-0.035548
III,424,1.505325,-0.035901
III,425,1.508876,-0.03596
III,426,1.512426,-0.036023
III,427,1.515976,-0.036353
III,428,1.519527,-0.036926
III,429,1.523077,-0.037406
III,430,1.526627,-0.037578
III,431,1.530178,-0.037567
III,432,1.533728,-0.037679
III,433,1.537278,-0.038228
III,434,1.540828,-0.038704
III,435,1.544379,-0.039008
III,436,1.547929,-0.041494
III,437,1.551479,-0.045598
III,438,1.55503,-0.045888
III,439,1.55858,-0.042328
III,440,1.56213,-0.040314
III,441,1.56568,-0.040454
III,442,1.569231,-0.040468
III,443,1.572781,-0.040478
III,444,1.576331,-0.040944
III,445,1.579882,-0.041479
III,446,1.583432,-0.041761
III,447,1.586982,-0.04173
III,448,1.590533,-0.041665
III,449,1.594083,-0.041906
III,450,1.597633,-0.042419
III,451,1.601183,-0.042853
III,452,1.604734,-0.042938
III,453,1.608284,-0.042816
III,454,1.611834,-0.042842
III,455,1.615385,-0.043233
III,456,1.618935,-0.043771
III,457,1.622485,-0.043953
III,458,1.626036,-0.043993
III,459,1.629586,-0.043767
III,460,1.633136,-0.041645
III,461,1.636686,-0.037905
III,462,1.640237,-0.0359
III,463,1.643787,-0.038356
III,464,1.647337,-0.044747
III,465,1.650888,-0.051266
III,466,1.654438,-0.054069
III,467,1.657988,-0.051991
III,468,1.661538,-0.048078
III,469,1.665089,-0.048014
III,470,1.668639,-0.05189
III,471,1.672189,-0.054686
III,472,1.67574,-0.054791
III,473,1.67929,-0.055234
III,474,1.68284,-0.059304
III,475,1.686391,-0.063523
III,476,1.689941,-0.061966
III,477,1.693491,-0.057542
III,478,1.697041,-0.055709
III,479,1.700592,-0.055876
III,480,1.704142,-0.055656
III,481,1.707692,-0.055546
III,482,1.711243,-0.058088
III,483,1.714793,-0.062594
III,484,1.718343,-0.065089
III,485,1.721893,-0.06516
III,486,1.725444,-0.064791
III,487,1.728994,-0.064841
III,488,1.732544,-0.065577
III,489,1.736095,-0.062604
III,490,1.739645,-0.053366
III,491,1.743195,-0.043066
III,492,1.746746,-0.032452
III,493,1.750296,-0.021592
III,494,1.753846,-0.014078
III,495,1.757396,-0.011958
III,496,1.760947,-0.022503
III,497,1.764497,-0.039778
III,498,1.768047,-0.045368
III,499,1.771598,-0.04774
III,500,1.775148,-0.061439
III,501,1.778698,-0.073743
III,502,1.782249,-0.075136
III,503,1.785799,-0.073699
III,504,1.789349,-0.072107
III,505,1.792899,-0.068159
III,506,1.79645,-0.063379
III,507,1.8,-0.059032
III,508,1.80355,-0.056289
III,509,1.807101,-0.056181
III,510,1.810651,-0.058965
III,511,1.814201,-0.063302
III,512,1.817751,-0.065625
III,513,1.821302,-0.065232
III,514,1.824852,-0.064908
III,515,1.828402,-0.0651
III,516,1.831953,-0.062901
III,517,1.835503,-0.058905
III,518,1.839053,-0.058645
III,519,1.842604,-0.062308
III,520,1.846154,-0.064628
III,521,1.849704,-0.064844
III,522,1.853254,-0.06495
III,523,1.856805,-0.065109
III,524,1.860355,-0.064519
III,525,1.863905,-0.061887
III,526,1.867456,-0.057607
III,527,1.871006,-0.053233
III,528,1.874556,-0.049019
III,529,1.878107,-0.046585
III,530,1.881657,-0.048319
III,531,1.885207,-0.052367
III,532,1.888757,-0.054797
III,533,1.892308,-0.055074
III,534,1.895858,-0.054966
III,535,1.899408,-0.054649
III,536,1.902959,-0.051807
III,537,1.906509,-0.045114
III,538,1.910059,-0.038707
III,539,1.913609,-0.038827
III,540,1.91716,-0.045223
III,541,1.92071,-0.051256
III,542,1.92426,-0.053411
III,543,1.927811,-0.053311
III,544,1.931361,-0.051057
III,545,1.934911,-0.046888
III,546,1.938462,-0.044165
III,547,1.942012,-0.043709
III,548,1.945562,-0.043529
III,549,1.949112,-0.043585
III,550,1.952663,-0.043602
III,551,1.956213,-0.041055
III,552,1.959763,-0.036491
III,553,1.963314,-0.033853
III,554,1.966864,-0.03351
III,555,1.970414,-0.033449
III,556,1.973964,-0.033469
III,557,1.977515,-0.033339
III,558,1.981065,-0.032935
III,559,1.984615,-0.032727
III,560,1.988166,-0.032482
III,561,1.991716,-0.03268
III,562,1.995266,-0.03227
III,563,1.998817,-0.028194
III,564,2.002367,-0.023271
III,565,2.005917,-0.022197
III,566,2.009467,-0.022724
III,567,2.013018,-0.022211
III,568,2.016568,-0.021697
III,569,2.020118,-0.021838
III,570,2.023669,-0.022005
III,571,2.027219,-0.021619
III,572,2.030769,-0.021282
III,573,2.03432,-0.020893
III,574,2.03787,-0.018292
III,575,2.04142,-0.013644
III,576,2.04497,-0.011156
III,577,2.048521,-0.013335
III,578,2.052071,-0.017431
III,579,2.055621,-0.019479
III,580,2.059172,-0.018999
III,581,2.062722,-0.018732
III,582,2.066272,-0.01882
III,583,2.069822,-0.015105
III,584,2.073373,-0.01029
III,585,2.076923,-0.011395
III,586,2.080473,-0.015329
III,587,2.084024,-0.01718
III,588,2.087574,-0.017117
III,589,2.091124,-0.01443
III,590,2.094675,-0.01038
III,591,2.098225,-0.006709
III,592,2.101775,-0.003811
III,593,2.105325,-0.002764
III,594,2.108876,-0.002963
III,595,2.112426,-0.006981
III,596,2.115976,-0.013765
III,597,2.119527,-0.015043
III,598,2.123077,-0.013134
III,599,2.126627,-0.013389
III,600,2.130178,-0.01278
III,601,2.133728,-0.010851
III,602,2.137278,-0.009546
III,603,2.140828,-0.008527
III,604,2.144379,-0.007604
III,605,2.147929,-0.006852
III,606,2.151479,-0.005913
III,607,2.15503,-0.004736
III,608,2.15858,-0.003618
III,609,2.16213,-0.00261
III,610,2.16568,-0.001889
III,611,2.169231,-0.001665
III,612,2.172781,-0.001448
III,613,2.176331,-0.00092
III,614,2.179882,-0.000422
III,615,2.183432,-0.000169
III,616,2.186982,-9.3e-05
III,617,2.190533,4.1e-05
III,618,2.194083,0.000433
III,619,2.197633,0.000985
III,620,2.201183,0.001424
III,621,2.204734,0.001583
III,622,2.208284,0.001594
III,623,2.211834,0.001775
III,624,2.215385,0.002228
III,625,2.218935,0.002749
III,626,2.222485,0.003032
III,627,2.226036,0.002852
III,628,2.229586,0.002618
III,629,2.233136,0.003111
III,630,2.236686,0.003885
III,631,2.240237,0.004747
III,632,2.243787,0.007445
III,633,2.247337,0.011442
III,634,2.250888,0.014182
III,635,2.254438,0.014551
III,636,2.257988,0.011349
III,637,2.261538,0.007165
III,638,2.265089,0.006346
III,639,2.268639,0.006832
III,640,2.272189,0.006986
III,641,2.27574,0.009659
III,642,2.27929,0.01486
III,643,2.28284,0.017092
III,644,2.286391,0.012436
III,645,2.289941,0.006484
III,646,2.293491,0.004984
III,647,2.297041,0.004764
III,648,2.300592,0.003413
III,649,2.304142,0.002456
III,650,2.307692,0.001669
III,651,2.311243,0.000582
III,652,2.314793,-0.000216
III,653,2.318343,-0.000809
III,654,2.321893,-0.001688
III,655,2.325444,-0.002962
III,656,2.328994,-0.004327
III,657,2.332544,-0.005395
III,658,2.336095,-0.006113
III,659,2.339645,-0.006774
III,660,2.343195,-0.007943
III,661,2.346746,-0.009403
III,662,2.350296,-0.010305
III,663,2.353846,-0.010151
III,664,2.357396,-0.007831
III,665,2.360947,-0.005073
III,666,2.364497,-0.005348
III,667,2.368047,-0.007605
III,668,2.371598,-0.011156
III,669,2.375148,-0.016251
III,670,2.378698,-0.01937
III,671,2.382249,-0.01812
III,672,2.385799,-0.013242
III,673,2.389349,-0.005904
III,674,2.392899,0.001428
III,675,2.39645,0.006697
aVR,0,0.0,-0.093297
aVR,1,0.00355,-0.063937
aVR,2,0.007101,0.339536
aVR,3,0.010651,0.347677
aVR,4,0.014201,-0.036657
aVR,5,0.017751,-0.131886
aVR,6,0.021302,-0.077078
aVR,7,0.024852,-0.1068
aVR,8,0.028402,-0.108202
aVR,9,0.031953,-0.093961
aVR,10,0.035503,-0.094577
aVR,11,0.039053,-0.097775
aVR,12,0.042604,-0.106989
aVR,13,0.046154,-0.10996
aVR,14,0.049704,-0.103077
aVR,15,0.053254,-0.095209
aVR,16,0.056805,-0.094403
aVR,17,0.060355,-0.10144
aVR,18,0.063905,-0.10841
aVR,19,0.067456,-0.107244
aVR,20,0.071006,-0.098798
aVR,21,0.074556,-0.091989
aVR,22,0.078107,-0.093234
aVR,23,0.081657,-0.099432
aVR,24,0.085207,-0.102294
aVR,25,0.088757,-0.097522
aVR,26,0.092308,-0.089324
aVR,27,0.095858,-0.085592
aVR,28,0.099408,-0.088984
aVR,29,0.102959,-0.094233
aVR,30,0.106509,-0.094323
aVR,31,0.110059,-0.087902
aVR,32,0.113609,-0.081273
aVR,33,0.11716,-0.082588
aVR,34,0.12071,-0.091301
aVR,35,0.12426,-0.097009
aVR,36,0.127811,-0.092414
aVR,37,0.131361,-0.081387
aVR,38,0.134911,-0.072142
aVR,39,0.138462,-0.069306
aVR,40,0.142012,-0.071393
aVR,41,0.145562,-0.072712
aVR,42,0.149112,-0.070948
aVR,43,0.152663,-0.068852
aVR,44,0.156213,-0.06882
aVR,45,0.159763,-0.071644
aVR,46,0.163314,-0.075087
aVR,47,0.166864,-0.074363
aVR,48,0.170414,-0.069298
aVR,49,0.173964,-0.064365
aVR,50,0.177515,-0.061691
aVR,51,0.181065,-0.060963
aVR,52,0.184615,-0.060612
aVR,53,0.188166,-0.058134
aVR,54,0.191716,-0.055352
aVR,55,0.195266,-0.056214
aVR,56,0.198817,-0.059814
aVR,57,0.202367,-0.06297
aVR,58,0.205917,-0.063274
aVR,59,0.209467,-0.059714
aVR,60,0.213018,-0.055104
aVR,61,0.216568,-0.05365
aVR,62,0.220118,-0.055808
aVR,63,0.223669,-0.058047
aVR,64,0.227219,-0.056915
aVR,65,0.230769,-0.052784
aVR,66,0.23432,-0.049339
aVR,67,0.23787,-0.04938
aVR,68,0.24142,-0.051763
aVR,69,0.24497,-0.052813
aVR,70,0.248521,-0.050465
aVR,71,0.252071,-0.046487
aVR,72,0.255621,-0.044389
aVR,73,0.259172,-0.045483
aVR,74,0.262722,-0.04752
aVR,75,0.266272,-0.047295
aVR,76,0.269822,-0.044226
aVR,77,0.273373,-0.040908
aVR,78,0.276923,-0.040101
aVR,79,0.280473,-0.041727
aVR,80,0.284024,-0.043033
aVR,81,0.287574,-0.041609
aVR,82,0.291124,-0.038473
aVR,83,0.294675,-0.036042
aVR,84,0.298225,-0.033971
aVR,85,0.301775,-0.031482
aVR,86,0.305325,-0.029435
aVR,87,0.308876,-0.027316
aVR,88,0.312426,-0.02434
aVR,89,0.315976,-0.023021
aVR,90,0.319527,-0.026329
aVR,91,0.323077,-0.03161
aVR,92,0.326627,-0.03342
aVR,93,0.330178,-0.030904
aVR,94,0.333728,-0.026109
aVR,95,0.337278,-0.021702
aVR,96,0.340828,-0.020502
aVR,97,0.344379,-0.021025
aVR,98,0.347929,-0.01976
aVR,99,0.351479,-0.017152
aVR,100,0.35503,-0.015692
aVR,101,0.35858,-0.015902
aVR,102,0.36213,-0.017026
aVR,103,0.36568,-0.019145
aVR,104,0.369231,-0.021534
aVR,105,0.372781,-0.021653
aVR,106,0.376331,-0.018593
aVR,107,0.379882,-0.015009
aVR,108,0.383432,-0.013486
aVR,109,0.386982,-0.012492
aVR,110,0.390533,-0.010696
aVR,111,0.394083,-0.011342
aVR,112,0.397633,-0.015323
aVR,113,0.401183,-0.018396
aVR,114,0.404734,-0.018583
aVR,115,0.408284,-0.017235
aVR,116,0.411834,-0.015489
aVR,117,0.415385,-0.014447
aVR,118,0.418935,-0.014684
aVR,119,0.422485,-0.015231
aVR,120,0.426036,-0.014839
aVR,121,0.429586,-0.013391
aVR,122,0.433136,-0.011919
aVR,123,0.436686,-0.011447
aVR,124,0.440237,-0.011846
aVR,125,0.443787,-0.012036
aVR,126,0.447337,-0.011247
aVR,127,0.450888,-0.009811
aVR,128,0.454438,-0.008781
aVR,129,0.457988,-0.008737
aVR,130,0.461538,-0.008997
aVR,131,0.465089,-0.008895
aVR,132,0.468639,-0.007882
aVR,133,0.472189,-0.004208
aVR,134,0.47574,0.000452
aVR,135,0.47929,0.000333
aVR,136,0.48284,-0.003869
aVR,137,0.486391,-0.005808
aVR,138,0.489941,-0.00472
aVR,139,0.493491,-0.003703
aVR,140,0.497041,-0.003509
aVR,141,0.500592,-0.00362
aVR,142,0.504142,-0.003519
aVR,143,0.507692,-0.002817
aVR,144,0.511243,-0.001838
aVR,145,0.514793,-0.001215
aVR,146,0.518343,-0.001134
aVR,147,0.521893,-0.001188
aVR,148,0.525444,-0.000866
aVR,149,0.528994,-8.5e-05
aVR,150,0.532544,0.000705
aVR,151,0.536095,0.001041
aVR,152,0.539645,0.001133
aVR,153,0.543195,0.001134
aVR,154,0.546746,0.001605
aVR,155,0.550296,0.004781
aVR,156,0.553846,0.009425
aVR,157,0.557396,0.009627
aVR,158,0.560947,0.005573
aVR,159,0.564497,0.003434
aVR,160,0.568047,0.003879
aVR,161,0.571598,0.004657
aVR,162,0.575148,0.007305
aVR,163,0.578698,0.01159
aVR,164,0.582249,0.014019
aVR,165,0.585799,0.014403
aVR,166,0.589349,0.014824
aVR,167,0.592899,0.015397
aVR,168,0.59645,0.015644
aVR,169,0.6,0.015757
aVR,170,0.60355,0.015936
aVR,171,0.607101,0.016288
aVR,172,0.610651,0.016761
aVR,173,0.614201,0.017131
aVR,174,0.617751,0.017353
aVR,175,0.621302,0.017514
aVR,176,0.624852,0.017654
aVR,177,0.628402,0.01814
aVR,178,0.631953,0.018379
aVR,179,0.635503,0.01646
aVR,180,0.639053,0.012482
aVR,181,0.642604,0.007977
aVR,182,0.646154,0.003989
aVR,183,0.649704,0.002143
aVR,184,0.653254,0.002167
aVR,185,0.656805,0.002719
aVR,186,0.660355,0.005057
aVR,187,0.663905,0.009435
aVR,188,0.667456,0.014298
aVR,189,0.671006,0.018718
aVR,190,0.674556,0.021211
aVR,191,0.678107,0.021603
aVR,192,0.681657,0.02165
aVR,193,0.685207,0.021872
aVR,194,0.688757,0.022003
aVR,195,0.692308,0.022202
aVR,196,0.695858,0.022469
aVR,197,0.699408,0.02271
aVR,198,0.702959,0.022875
aVR,199,0.706509,0.022982
aVR,200,0.710059,0.023098
aVR,201,0.713609,0.023257
aVR,202,0.71716,0.023595
aVR,203,0.72071,0.023731
aVR,204,0.72426,0.023837
aVR,205,0.727811,0.026339
aVR,206,0.731361,0.030497
aVR,207,0.734911,0.030701
aVR,208,0.738462,0.026892
aVR,209,0.742012,0.024622
aVR,210,0.745562,0.024697
aVR,211,0.749112,0.024812
aVR,212,0.752663,0.024843
aVR,213,0.756213,0.025095
aVR,214,0.759763,0.025308
aVR,215,0.763314,0.025413
aVR,216,0.766864,0.025432
aVR,217,0.770414,0.025459
aVR,218,0.773964,0.025597
aVR,219,0.777515,0.025805
aVR,220,0.781065,0.025962
aVR,221,0.784615,0.026006
aVR,222,0.788166,0.025995
aVR,223,0.791716,0.026048
aVR,224,0.795266,0.026203
aVR,225,0.798817,0.02638
aVR,226,0.802367,0.02647
aVR,227,0.805917,0.026459
aVR,228,0.809467,0.026453
aVR,229,0.813018,0.026524
aVR,230,0.816568,0.026681
aVR,231,0.820118,0.026835
aVR,232,0.823669,0.026782
aVR,233,0.827219,0.026864
aVR,234,0.830769,0.0268
aVR,235,0.83432,0.024573
aVR,236,0.83787,0.020577
aVR,237,0.84142,0.018282
aVR,238,0.84497,0.01827
aVR,239,0.848521,0.018237
aVR,240,0.852071,0.018242
aVR,241,0.855621,0.0207
aVR,242,0.859172,0.024938
aVR,243,0.862722,0.027191
aVR,244,0.866272,0.027331
aVR,245,0.869822,0.027122
aVR,246,0.873373,0.024907
aVR,247,0.876923,0.020822
aVR,248,0.880473,0.018521
aVR,249,0.884024,0.018439
aVR,250,0.887574,0.018504
aVR,251,0.891124,0.018412
aVR,252,0.894675,0.018463
aVR,253,0.898225,0.01849
aVR,254,0.901775,0.018476
aVR,255,0.905325,0.018446
aVR,256,0.908876,0.018409
aVR,257,0.912426,0.018382
aVR,258,0.915976,0.018377
aVR,259,0.919527,0.018359
aVR,260,0.923077,0.018312
aVR,261,0.926627,0.018356
aVR,262,0.930178,0.018205
aVR,263,0.933728,0.018223
aVR,264,0.937278,0.020468
aVR,265,0.940828,0.024638
aVR,266,0.944379,0.026861
aVR,267,0.947929,0.026879
aVR,268,0.951479,0.029148
aVR,269,0.95503,0.033203
aVR,270,0.95858,0.033105
aVR,271,0.96213,0.029005
aVR,272,0.96568,0.02654
aVR,273,0.969231,0.026498
aVR,274,0.972781,0.026499
aVR,275,0.976331,0.026316
aVR,276,0.979882,0.026275
aVR,277,0.983432,0.026226
aVR,278,0.986982,0.026178
aVR,279,0.990533,0.02611
aVR,280,0.994083,0.026001
aVR,281,0.997633,0.025891
aVR,282,1.001183,0.025804
aVR,283,1.004734,0.025742
aVR,284,1.008284,0.025681
aVR,285,1.011834,0.025593
aVR,286,1.015385,0.025476
aVR,287,1.018935,0.025352
aVR,288,1.022485,0.025251
aVR,289,1.026036,0.025176
aVR,290,1.029586,0.025103
aVR,291,1.033136,0.025003
aVR,292,1.036686,0.024869
aVR,293,1.040237,0.024729
aVR,294,1.043787,0.024616
aVR,295,1.047337,0.024534
aVR,296,1.050888,0.024454
aVR,297,1.054438,0.024338
aVR,298,1.057988,0.024183
aVR,299,1.061538,0.024026
aVR,300,1.065089,0.023907
aVR,301,1.068639,0.023825
aVR,302,1.072189,0.023737
aVR,303,1.07574,0.023599
aVR,304,1.07929,0.023419
aVR,305,1.08284,0.023249
aVR,306,1.086391,0.023133
aVR,307,1.089941,0.023055
aVR,308,1.093491,0.022954
aVR,309,1.097041,0.022786
aVR,310,1.100592,0.02258
aVR,311,1.104142,0.022406
aVR,312,1.107692,0.022303
aVR,313,1.111243,0.022229
aVR,314,1.114793,0.022102
aVR,315,1.118343,0.021904
aVR,316,1.121893,0.02167
aVR,317,1.125444,0.021507
aVR,318,1.128994,0.021449
aVR,319,1.132544,0.021292
aVR,320,1.136095,0.021252
aVR,321,1.139645,0.020949
aVR,322,1.143195,0.01838
aVR,323,1.146746,0.014106
aVR,324,1.150296,0.011703
aVR,325,1.153846,0.011551
aVR,326,1.157396,0.011477
aVR,327,1.160947,0.011128
aVR,328,1.164497,0.010913
aVR,329,1.168047,0.010784
aVR,330,1.171598,0.010723
aVR,331,1.175148,0.01062
aVR,332,1.178698,0.010397
aVR,333,1.182249,0.010094
aVR,334,1.185799,0.009827
aVR,335,1.189349,0.009801
aVR,336,1.192899,0.009642
aVR,337,1.19645,0.009577
aVR,338,1.2,0.011634
aVR,339,1.20355,0.015435
aVR,340,1.207101,0.017551
aVR,341,1.210651,0.017545
aVR,342,1.214201,0.017383
aVR,343,1.217751,0.017287
aVR,344,1.221302,0.016938
aVR,345,1.224852,0.016614
aVR,346,1.228402,0.016447
aVR,347,1.231953,0.0164
aVR,348,1.235503,0.016333
aVR,349,1.239053,0.0161
aVR,350,1.242604,0.015745
aVR,351,1.246154,0.015448
aVR,352,1.249704,0.015322
aVR,353,1.253254,0.015294
aVR,354,1.256805,0.015189
aVR,355,1.260355,0.014884
aVR,356,1.263905,0.01452
aVR,357,1.267456,0.014282
aVR,358,1.271006,0.014129
aVR,359,1.274556,0.014252
aVR,360,1.278107,0.01394
aVR,361,1.281657,0.011376
aVR,362,1.285207,0.006821
aVR,363,1.288757,0.001922
aVR,364,1.292308,-0.002245
aVR,365,1.295858,-0.00454
aVR,366,1.299408,-0.004969
aVR,367,1.302959,-0.002828
aVR,368,1.306509,0.003202
aVR,369,1.310059,0.009545
aVR,370,1.313609,0.011948
aVR,371,1.31716,0.011804
aVR,372,1.32071,0.011454
aVR,373,1.32426,0.01105
aVR,374,1.327811,0.010809
aVR,375,1.331361,0.01064
aVR,376,1.334911,0.010712
aVR,377,1.338462,0.012871
aVR,378,1.342012,0.016609
aVR,379,1.345562,0.018533
aVR,380,1.349112,0.018396
aVR,381,1.352663,0.018277
aVR,382,1.356213,0.018319
aVR,383,1.359763,0.018029
aVR,384,1.363314,0.017598
aVR,385,1.366864,0.017256
aVR,386,1.370414,0.017137
aVR,387,1.373964,0.017154
aVR,388,1.377515,0.017048
aVR,389,1.381065,0.016706
aVR,390,1.384615,0.016277
aVR,391,1.388166,0.016005
aVR,392,1.391716,0.015961
aVR,393,1.395266,0.01596
aVR,394,1.398817,0.015771
aVR,395,1.402367,0.015371
aVR,396,1.405917,0.014972
aVR,397,1.409467,0.014793
aVR,398,1.413018,0.014788
aVR,399,1.416568,0.014746
aVR,400,1.420118,0.014492
aVR,401,1.423669,0.013992
aVR,402,1.427219,0.013773
aVR,403,1.430769,0.013589
aVR,404,1.43432,0.011354
aVR,405,1.43787,0.006985
aVR,406,1.44142,0.004362
aVR,407,1.44497,0.006203
aVR,408,1.448521,0.010217
aVR,409,1.452071,0.012479
aVR,410,1.455621,0.012485
aVR,411,1.459172,0.012252
aVR,412,1.462722,0.011816
aVR,413,1.466272,0.009189
aVR,414,1.469822,0.004826
aVR,415,1.473373,0.002586
aVR,416,1.476923,0.004751
aVR,417,1.480473,0.008662
aVR,418,1.484024,0.010512
aVR,419,1.487574,0.010345
aVR,420,1.491124,0.010199
aVR,421,1.494675,0.010291
aVR,422,1.498225,0.009999
aVR,423,1.501775,0.009736
aVR,424,1.505325,0.009328
aVR,425,1.508876,0.006835
aVR,426,1.512426,0.002704
aVR,427,1.515976,0.000304
aVR,428,1.519527,-2e-05
aVR,429,1.523077,-0.000266
aVR,430,1.526627,-0.000619
aVR,431,1.530178,-0.000686
aVR,432,1.533728,-0.000713
aVR,433,1.537278,-0.000857
aVR,434,1.540828,-0.001135
aVR,435,1.544379,-0.00146
aVR,436,1.547929,-0.001653
aVR,437,1.551479,-0.001728
aVR,438,1.55503,-0.001828
aVR,439,1.55858,-0.001931
aVR,440,1.56213,-0.002328
aVR,441,1.56568,-0.002524
aVR,442,1.569231,-0.000344
aVR,443,1.572781,0.003706
aVR,444,1.576331,0.005929
aVR,445,1.579882,0.005787
aVR,446,1.583432,0.005408
aVR,447,1.586982,0.005282
aVR,448,1.590533,0.005128
aVR,449,1.594083,0.005045
aVR,450,1.597633,0.004944
aVR,451,1.601183,0.004645
aVR,452,1.604734,0.004528
aVR,453,1.608284,0.004307
aVR,454,1.611834,0.001876
aVR,455,1.615385,-0.002374
aVR,456,1.618935,-0.004789
aVR,457,1.622485,-0.005182
aVR,458,1.626036,-0.005192
aVR,459,1.629586,-0.003062
aVR,460,1.633136,0.001002
aVR,461,1.636686,0.003214
aVR,462,1.640237,0.00309
aVR,463,1.643787,0.002789
aVR,464,1.647337,0.002723
aVR,465,1.650888,0.002603
aVR,466,1.654438,0.002512
aVR,467,1.657988,0.002362
aVR,468,1.661538,0.002176
aVR,469,1.665089,0.002044
aVR,470,1.668639,0.001882
aVR,471,1.672189,0.001932
aVR,472,1.67574,0.001728
aVR,473,1.67929,-0.000694
aVR,474,1.68284,-0.005124
aVR,475,1.686391,-0.007512
aVR,476,1.689941,-0.005248
aVR,477,1.693491,-0.001128
aVR,478,1.697041,0.00109
aVR,479,1.700592,0.00099
aVR,480,1.704142,-0.00175
aVR,481,1.707692,-0.005818
aVR,482,1.711243,-0.005817
aVR,483,1.714793,-0.001746
aVR,484,1.718343,0.000485
aVR,485,1.721893,0.000332
aVR,486,1.725444,1.2e-05
aVR,487,1.728994,-0.002247
aVR,488,1.732544,-0.00634
aVR,489,1.736095,-0.008586
aVR,490,1.739645,-0.008965
aVR,491,1.743195,-0.009072
aVR,492,1.746746,-0.006968
aVR,493,1.750296,-0.002721
aVR,494,1.753846,-0.000194
aVR,495,1.757396,-0.000243
aVR,496,1.760947,-0.000519
aVR,497,1.764497,-0.000814
aVR,498,1.768047,-0.003229
aVR,499,1.771598,-0.007141
aVR,500,1.775148,-0.00927
aVR,501,1.778698,-0.009456
aVR,502,1.782249,-0.009694
aVR,503,1.785799,-0.010048
aVR,504,1.789349,-0.009953
aVR,505,1.792899,-0.009558
aVR,506,1.79645,-0.009526
aVR,507,1.8,-0.009667
aVR,508,1.80355,-0.007832
aVR,509,1.807101,-0.003747
aVR,510,1.810651,-0.00121
aVR,511,1.814201,-0.003108
aVR,512,1.817751,-0.007305
aVR,513,1.821302,-0.009939
aVR,514,1.824852,-0.010448
aVR,515,1.828402,-0.010214
aVR,516,1.831953,-0.009969
aVR,517,1.835503,-0.009547
aVR,518,1.839053,-0.007361
aVR,519,1.842604,-0.00372
aVR,520,1.846154,-0.001636
aVR,521,1.849704,-0.001293
aVR,522,1.853254,-0.000884
aVR,523,1.856805,-0.000613
aVR,524,1.860355,-0.000989
aVR,525,1.863905,-0.001467
aVR,526,1.867456,-0.001476
aVR,527,1.871006,-0.000989
aVR,528,1.874556,-0.00047
aVR,529,1.878107,-0.000475
aVR,530,1.881657,-0.001049
aVR,531,1.885207,-0.001254
aVR,532,1.888757,-0.001141
aVR,533,1.892308,-0.002701
aVR,534,1.895858,-0.006498
aVR,535,1.899408,-0.011471
aVR,536,1.902959,-0.015465
aVR,537,1.906509,-0.018211
aVR,538,1.910059,-0.024597
aVR,539,1.913609,-0.030784
aVR,540,1.91716,-0.026698
aVR,541,1.92071,-0.017461
aVR,542,1.92426,-0.011582
aVR,543,1.927811,-0.006879
aVR,544,1.931361,-0.001858
aVR,545,1.934911,0.000883
aVR,546,1.938462,0.00091
aVR,547,1.942012,0.000237
aVR,548,1.945562,8.3e-05
aVR,549,1.949112,0.00055
aVR,550,1.952663,0.00133
aVR,551,1.956213,0.001689
aVR,552,1.959763,0.001346
aVR,553,1.963314,0.000867
aVR,554,1.966864,0.000935
aVR,555,1.970414,0.001663
aVR,556,1.973964,0.002416
aVR,557,1.977515,0.002432
aVR,558,1.981065,0.002069
aVR,559,1.984615,0.001669
aVR,560,1.988166,-0.000195
aVR,561,1.991716,-0.003569
aVR,562,1.995266,-0.005259
aVR,563,1.998817,-0.003229
aVR,564,2.002367,0.000642
aVR,565,2.005917,0.002768
aVR,566,2.009467,0.001288
aVR,567,2.013018,-0.002214
aVR,568,2.016568,-0.004115
aVR,569,2.020118,-0.002204
aVR,570,2.023669,0.001686
aVR,571,2.027219,0.004239
aVR,572,2.030769,0.005211
aVR,573,2.03432,0.00572
aVR,574,2.03787,0.005921
aVR,575,2.04142,0.005538
aVR,576,2.04497,0.003005
aVR,577,2.048521,-0.000462
aVR,578,2.052071,0.000406
aVR,579,2.055621,0.004947
aVR,580,2.059172,0.007259
aVR,581,2.062722,0.00697
aVR,582,2.066272,0.007096
aVR,583,2.069822,0.00795
aVR,584,2.073373,0.008702
aVR,585,2.076923,0.008967
aVR,586,2.080473,0.008768
aVR,587,2.084024,0.008676
aVR,588,2.087574,0.009157
aVR,589,2.091124,0.010014
aVR,590,2.094675,0.010658
aVR,591,2.098225,0.01075
aVR,592,2.101775,0.010573
aVR,593,2.105325,0.010723
aVR,594,2.108876,0.011402
aVR,595,2.112426,0.012258
aVR,596,2.115976,0.012761
aVR,597,2.119527,0.012668
aVR,598,2.123077,0.012726
aVR,599,2.126627,0.013051
aVR,600,2.130178,0.011545
aVR,601,2.133728,0.008195
aVR,602,2.137278,0.006171
aVR,603,2.140828,0.006069
aVR,604,2.144379,0.006314
aVR,605,2.147929,0.006849
aVR,606,2.151479,0.007757
aVR,607,2.15503,0.008401
aVR,608,2.15858,0.008567
aVR,609,2.16213,0.008609
aVR,610,2.16568,0.00896
aVR,611,2.169231,0.009722
aVR,612,2.172781,0.010647
aVR,613,2.176331,0.011019
aVR,614,2.179882,0.011192
aVR,615,2.183432,0.013701
aVR,616,2.186982,0.018444
aVR,617,2.190533,0.021584
aVR,618,2.194083,0.022525
aVR,619,2.197633,0.022683
aVR,620,2.201183,0.020544
aVR,621,2.204734,0.016837
aVR,622,2.208284,0.015179
aVR,623,2.211834,0.016119
aVR,624,2.215385,0.019119
aVR,625,2.218935,0.023541
aVR,626,2.222485,0.026037
aVR,627,2.226036,0.024479
aVR,628,2.229586,0.020954
aVR,629,2.233136,0.019252
aVR,630,2.236686,0.021494
aVR,631,2.240237,0.025555
aVR,632,2.243787,0.027784
aVR,633,2.247337,0.028078
aVR,634,2.250888,0.028559
aVR,635,2.254438,0.028857
aVR,636,2.257988,0.026471
aVR,637,2.261538,0.022203
aVR,638,2.265089,0.019958
aVR,639,2.268639,0.020264
aVR,640,2.272189,0.020809
aVR,641,2.27574,0.020922
aVR,642,2.27929,0.020891
aVR,643,2.28284,0.020841
aVR,644,2.286391,0.021029
aVR,645,2.289941,0.021447
aVR,646,2.293491,0.021808
aVR,647,2.297041,0.021928
aVR,648,2.300592,0.02188
aVR,649,2.304142,0.021922
aVR,650,2.307692,0.022208
aVR,651,2.311243,0.022626
aVR,652,2.314793,0.022928
aVR,653,2.318343,0.023005
aVR,654,2.321893,0.022994
aVR,655,2.325444,0.023128
aVR,656,2.328994,0.023476
aVR,657,2.332544,0.02388
aVR,658,2.336095,0.024128
aVR,659,2.339645,0.024188
aVR,660,2.343195,0.024232
aVR,661,2.346746,0.024448
aVR,662,2.350296,0.024835
aVR,663,2.353846,0.025214
aVR,664,2.357396,0.025424
aVR,665,2.360947,0.025488
aVR,666,2.364497,0.025592
aVR,667,2.368047,0.025882
aVR,668,2.371598,0.02628
aVR,669,2.375148,0.026648
aVR,670,2.378698,0.026835
aVR,671,2.382249,0.026856
aVR,672,2.385799,0.027182
aVR,673,2.389349,0.027311
aVR,674,2.392899,0.025688
aVR,675,2.39645,0.022311
aVL,0,0.0,-0.042586
aVL,1,0.00355,-0.037346
aVL,2,0.007101,0.081467
aVL,3,0.010651,0.067754
aVL,4,0.014201,-0.080322
aVL,5,0.017751,-0.119377
aVL,6,0.021302,-0.096032
aVL,7,0.024852,-0.107436
aVL,8,0.028402,-0.10871
aVL,9,0.031953,-0.101544
aVL,10,0.035503,-0.100792
aVL,11,0.039053,-0.101409
aVL,12,0.042604,-0.103681
aVL,13,0.046154,-0.102349
aVL,14,0.049704,-0.096796
aVL,15,0.053254,-0.091846
aVL,16,0.056805,-0.090837
aVL,17,0.060355,-0.092945
aVL,18,0.063905,-0.093827
aVL,19,0.067456,-0.090613
aVL,20,0.071006,-0.085166
aVL,21,0.074556,-0.081779
aVL,22,0.078107,-0.082332
aVL,23,0.081657,-0.084247
aVL,24,0.085207,-0.083495
aVL,25,0.088757,-0.079167
aVL,26,0.092308,-0.074409
aVL,27,0.095858,-0.072776
aVL,28,0.099408,-0.074239
aVL,29,0.102959,-0.075266
aVL,30,0.106509,-0.072948
aVL,31,0.110059,-0.068229
aVL,32,0.113609,-0.064641
aVL,33,0.11716,-0.064693
aVL,34,0.12071,-0.066721
aVL,35,0.12426,-0.066305
aVL,36,0.127811,-0.062534
aVL,37,0.131361,-0.05797
aVL,38,0.134911,-0.053654
aVL,39,0.138462,-0.050534
aVL,40,0.142012,-0.049168
aVL,41,0.145562,-0.047464
aVL,42,0.149112,-0.045746
aVL,43,0.152663,-0.046348
aVL,44,0.156213,-0.048262
aVL,45,0.159763,-0.049765
aVL,46,0.163314,-0.049728
aVL,47,0.166864,-0.046756
aVL,48,0.170414,-0.042693
aVL,49,0.173964,-0.040473
aVL,50,0.177515,-0.038822
aVL,51,0.181065,-0.035902
aVL,52,0.184615,-0.032145
aVL,53,0.188166,-0.028358
aVL,54,0.191716,-0.02736
aVL,55,0.195266,-0.030804
aVL,56,0.198817,-0.034598
aVL,57,0.202367,-0.034879
aVL,58,0.205917,-0.032353
aVL,59,0.209467,-0.028256
aVL,60,0.213018,-0.023681
aVL,61,0.216568,-0.022518
aVL,62,0.220118,-0.025706
aVL,63,0.223669,-0.027057
aVL,64,0.227219,-0.023642
aVL,65,0.230769,-0.019915
aVL,66,0.23432,-0.019255
aVL,67,0.23787,-0.020757
aVL,68,0.24142,-0.021445
aVL,69,0.24497,-0.019135
aVL,70,0.248521,-0.015067
aVL,71,0.252071,-0.012611
aVL,72,0.255621,-0.0133
aVL,73,0.259172,-0.015076
aVL,74,0.262722,-0.014589
aVL,75,0.266272,-0.011047
aVL,76,0.269822,-0.007213
aVL,77,0.273373,-0.006235
aVL,78,0.276923,-0.008067
aVL,79,0.280473,-0.009419
aVL,80,0.284024,-0.007365
aVL,81,0.287574,-0.003182
aVL,82,0.291124,-0.000198
aVL,83,0.294675,0.001496
aVL,84,0.298225,0.003269
aVL,85,0.301775,0.005422
aVL,86,0.305325,0.008968
aVL,87,0.308876,0.013159
aVL,88,0.312426,0.014772
aVL,89,0.315976,0.012548
aVL,90,0.319527,0.007972
aVL,91,0.323077,0.005165
aVL,92,0.326627,0.007458
aVL,93,0.330178,0.010968
aVL,94,0.333728,0.01075
aVL,95,0.337278,0.009852
aVL,96,0.340828,0.012944
aVL,97,0.344379,0.018368
aVL,98,0.347929,0.021232
aVL,99,0.351479,0.01907
aVL,100,0.35503,0.014496
aVL,101,0.35858,0.01358
aVL,102,0.36213,0.01822
aVL,103,0.36568,0.023006
aVL,104,0.369231,0.023494
aVL,105,0.372781,0.021246
aVL,106,0.376331,0.019871
aVL,107,0.379882,0.021514
aVL,108,0.383432,0.026484
aVL,109,0.386982,0.032326
aVL,110,0.390533,0.033191
aVL,111,0.394083,0.026924
aVL,112,0.397633,0.020053
aVL,113,0.401183,0.019135
aVL,114,0.404734,0.02401
aVL,115,0.408284,0.029831
aVL,116,0.411834,0.030993
aVL,117,0.415385,0.026704
aVL,118,0.418935,0.022547
aVL,119,0.422485,0.024132
aVL,120,0.426036,0.030608
aVL,121,0.429586,0.035479
aVL,122,0.433136,0.033848
aVL,123,0.436686,0.028113
aVL,124,0.440237,0.025472
aVL,125,0.443787,0.029812
aVL,126,0.447337,0.03711
aVL,127,0.450888,0.039811
aVL,128,0.454438,0.03534
aVL,129,0.457988,0.02923
aVL,130,0.461538,0.02924
aVL,131,0.465089,0.036051
aVL,132,0.468639,0.042901
aVL,133,0.472189,0.044978
aVL,134,0.47574,0.042257
aVL,135,0.47929,0.037225
aVL,136,0.48284,0.036335
aVL,137,0.486391,0.042545
aVL,138,0.489941,0.047554
aVL,139,0.493491,0.043674
aVL,140,0.497041,0.035458
aVL,141,0.500592,0.032926
aVL,142,0.504142,0.039619
aVL,143,0.507692,0.04879
aVL,144,0.511243,0.050574
aVL,145,0.514793,0.04317
aVL,146,0.518343,0.035243
aVL,147,0.521893,0.036347
aVL,148,0.525444,0.046036
aVL,149,0.528994,0.054042
aVL,150,0.532544,0.051601
aVL,151,0.536095,0.04158
aVL,152,0.539645,0.035702
aVL,153,0.543195,0.041084
aVL,154,0.546746,0.052692
aVL,155,0.550296,0.059979
aVL,156,0.553846,0.057242
aVL,157,0.557396,0.048458
aVL,158,0.560947,0.043925
aVL,159,0.564497,0.049605
aVL,160,0.568047,0.058717
aVL,161,0.571598,0.059092
aVL,162,0.575148,0.050363
aVL,163,0.578698,0.044376
aVL,164,0.582249,0.049685
aVL,165,0.585799,0.063167
aVL,166,0.589349,0.072304
aVL,167,0.592899,0.067105
aVL,168,0.59645,0.053072
aVL,169,0.6,0.046192
aVL,170,0.60355,0.055112
aVL,171,0.607101,0.070159
aVL,172,0.610651,0.074593
aVL,173,0.614201,0.064523
aVL,174,0.617751,0.047762
aVL,175,0.621302,0.048276
aVL,176,0.624852,0.064932
aVL,177,0.628402,0.066354
aVL,178,0.631953,0.092122
aVL,179,0.635503,0.042886
aVL,180,0.639053,0.013793
aVL,181,0.642604,0.159846
aVL,182,0.646154,-0.17418
aVL,183,0.649704,-0.605405
aVL,184,0.653254,-0.181986
aVL,185,0.656805,0.151284
aVL,186,0.660355,0.005884
aVL,187,0.663905,0.034673
aVL,188,0.667456,0.086649
aVL,189,0.671006,0.06574
aVL,190,0.674556,0.067138
aVL,191,0.678107,0.050739
aVL,192,0.681657,0.050016
aVL,193,0.685207,0.066904
aVL,194,0.688757,0.077379
aVL,195,0.692308,0.073585
aVL,196,0.695858,0.059
aVL,197,0.699408,0.050158
aVL,198,0.702959,0.056939
aVL,199,0.706509,0.071076
aVL,200,0.710059,0.076889
aVL,201,0.713609,0.068285
aVL,202,0.71716,0.055246
aVL,203,0.72071,0.052302
aVL,204,0.72426,0.062305
aVL,205,0.727811,0.073764
aVL,206,0.731361,0.073997
aVL,207,0.734911,0.063127
aVL,208,0.738462,0.053485
aVL,209,0.742012,0.055591
aVL,210,0.745562,0.066647
aVL,211,0.749112,0.074102
aVL,212,0.752663,0.069818
aVL,213,0.756213,0.058866
aVL,214,0.759763,0.053462
aVL,215,0.763314,0.059263
aVL,216,0.766864,0.06938
aVL,217,0.770414,0.072421
aVL,218,0.773964,0.06519
aVL,219,0.777515,0.055905
aVL,220,0.781065,0.05474
aVL,221,0.784615,0.06255
aVL,222,0.788166,0.070275
aVL,223,0.791716,0.069274
aVL,224,0.795266,0.060818
aVL,225,0.798817,0.054334
aVL,226,0.802367,0.056724
aVL,227,0.805917,0.064861
aVL,228,0.809467,0.069411
aVL,229,0.813018,0.065298
aVL,230,0.816568,0.057194
aVL,231,0.820118,0.053991
aVL,232,0.823669,0.058737
aVL,233,0.827219,0.065915
aVL,234,0.830769,0.067093
aVL,235,0.83432,0.058767
aVL,236,0.83787,0.048005
aVL,237,0.84142,0.045583
aVL,238,0.84497,0.051358
aVL,239,0.848521,0.056582
aVL,240,0.852071,0.057203
aVL,241,0.855621,0.054877
aVL,242,0.859172,0.052962
aVL,243,0.862722,0.055255
aVL,244,0.866272,0.061136
aVL,245,0.869822,0.063707
aVL,246,0.873373,0.057577
aVL,247,0.876923,0.047417
aVL,248,0.880473,0.043213
aVL,249,0.884024,0.047014
aVL,250,0.887574,0.051955
aVL,251,0.891124,0.05199
aVL,252,0.894675,0.047151
aVL,253,0.898225,0.04252
aVL,254,0.901775,0.042881
aVL,255,0.905325,0.047347
aVL,256,0.908876,0.05049
aVL,257,0.912426,0.048576
aVL,258,0.915976,0.043523
aVL,259,0.919527,0.04064
aVL,260,0.923077,0.042776
aVL,261,0.926627,0.046812
aVL,262,0.930178,0.048133
aVL,263,0.933728,0.047167
aVL,264,0.937278,0.046879
aVL,265,0.940828,0.048339
aVL,266,0.944379,0.051228
aVL,267,0.947929,0.054481
aVL,268,0.951479,0.056296
aVL,269,0.95503,0.054126
aVL,270,0.95858,0.049033
aVL,271,0.96213,0.047326
aVL,272,0.96568,0.050383
aVL,273,0.969231,0.052405
aVL,274,0.972781,0.05032
aVL,275,0.976331,0.04646
aVL,276,0.979882,0.044595
aVL,277,0.983432,0.046273
aVL,278,0.986982,0.049112
aVL,279,0.990533,0.049479
aVL,280,0.994083,0.046625
aVL,281,0.997633,0.04336
aVL,282,1.001183,0.042838
aVL,283,1.004734,0.04508
aVL,284,1.008284,0.047055
aVL,285,1.011834,0.046136
aVL,286,1.015385,0.042971
aVL,287,1.018935,0.040657
aVL,288,1.022485,0.041237
aVL,289,1.026036,0.043488
aVL,290,1.029586,0.04439
aVL,291,1.033136,0.042514
aVL,292,1.036686,0.039539
aVL,293,1.040237,0.038291
aVL,294,1.043787,0.039587
aVL,295,1.047337,0.04141
aVL,296,1.050888,0.041232
aVL,297,1.054438,0.038818
aVL,298,1.057988,0.036403
aVL,299,1.061538,0.036138
aVL,300,1.065089,0.037725
aVL,301,1.068639,0.038833
aVL,302,1.072189,0.03774
aVL,303,1.07574,0.03521
aVL,304,1.07929,0.033561
aVL,305,1.08284,0.034053
aVL,306,1.086391,0.035537
aVL,307,1.089941,0.035811
aVL,308,1.093491,0.034082
aVL,309,1.097041,0.031794
aVL,310,1.100592,0.030953
aVL,311,1.104142,0.031892
aVL,312,1.107692,0.03297
aVL,313,1.111243,0.032447
aVL,314,1.114793,0.030408
aVL,315,1.118343,0.028618
aVL,316,1.121893,0.028475
aVL,317,1.125444,0.029539
aVL,318,1.128994,0.030055
aVL,319,1.132544,0.028815
aVL,320,1.136095,0.026907
aVL,321,1.139645,0.025661
aVL,322,1.143195,0.023672
aVL,323,1.146746,0.020389
aVL,324,1.150296,0.01787
aVL,325,1.153846,0.016246
aVL,326,1.157396,0.014612
aVL,327,1.160947,0.013961
aVL,328,1.164497,0.014609
aVL,329,1.168047,0.015116
aVL,330,1.171598,0.014371
aVL,331,1.175148,0.01269
aVL,332,1.178698,0.01138
aVL,333,1.182249,0.011294
aVL,334,1.185799,0.011909
aVL,335,1.189349,0.011921
aVL,336,1.192899,0.010743
aVL,337,1.19645,0.00925
aVL,338,1.2,0.00831
aVL,339,1.20355,0.008593
aVL,340,1.207101,0.011342
aVL,341,1.210651,0.015055
aVL,342,1.214201,0.016067
aVL,343,1.217751,0.01484
aVL,344,1.221302,0.014324
aVL,345,1.224852,0.014711
aVL,346,1.228402,0.014738
aVL,347,1.231953,0.013904
aVL,348,1.235503,0.012566
aVL,349,1.239053,0.01162
aVL,350,1.242604,0.011518
aVL,351,1.246154,0.011737
aVL,352,1.249704,0.011435
aVL,353,1.253254,0.010384
aVL,354,1.256805,0.009198
aVL,355,1.260355,0.008591
aVL,356,1.263905,0.008626
aVL,357,1.267456,0.008661
aVL,358,1.271006,0.007986
aVL,359,1.274556,0.006975
aVL,360,1.278107,0.005979
aVL,361,1.281657,0.003324
aVL,362,1.285207,-0.000994
aVL,363,1.288757,-0.003308
aVL,364,1.292308,-0.004439
aVL,365,1.295858,-0.009275
aVL,366,1.299408,-0.01457
aVL,367,1.302959,-0.013095
aVL,368,1.306509,-0.006134
aVL,369,1.310059,-0.000256
aVL,370,1.313609,0.001287
aVL,371,1.31716,0.000401
aVL,372,1.32071,-0.000184
aVL,373,1.32426,-0.000304
aVL,374,1.327811,-0.000483
aVL,375,1.331361,-0.001204
aVL,376,1.334911,-0.002009
aVL,377,1.338462,-0.000403
aVL,378,1.342012,0.003394
aVL,379,1.345562,0.005576
aVL,380,1.349112,0.005291
aVL,381,1.352663,0.004483
aVL,382,1.356213,0.003737
aVL,383,1.359763,0.003092
aVL,384,1.363314,0.002786
aVL,385,1.366864,0.002565
aVL,386,1.370414,0.002101
aVL,387,1.373964,0.001375
aVL,388,1.377515,0.000629
aVL,389,1.381065,0.000127
aVL,390,1.384615,-0.000141
aVL,391,1.388166,-0.000438
aVL,392,1.391716,-0.00098
aVL,393,1.395266,-0.001705
aVL,394,1.398817,-0.002358
aVL,395,1.402367,-0.002773
aVL,396,1.405917,-0.003035
aVL,397,1.409467,-0.003411
aVL,398,1.413018,-0.004001
aVL,399,1.416568,-0.00466
aVL,400,1.420118,-0.005309
aVL,401,1.423669,-0.005535
aVL,402,1.427219,-0.005888
aVL,403,1.430769,-0.008704
aVL,404,1.43432,-0.013416
aVL,405,1.43787,-0.01654
aVL,406,1.44142,-0.017018
aVL,407,1.44497,-0.014855
aVL,408,1.448521,-0.011061
aVL,409,1.452071,-0.009128
aVL,410,1.455621,-0.009762
aVL,411,1.459172,-0.010363
aVL,412,1.462722,-0.010772
aVL,413,1.466272,-0.013352
aVL,414,1.469822,-0.017986
aVL,415,1.473373,-0.020807
aVL,416,1.476923,-0.019139
aVL,417,1.480473,-0.015364
aVL,418,1.484024,-0.013396
aVL,419,1.487574,-0.013531
aVL,420,1.491124,-0.014125
aVL,421,1.494675,-0.014513
aVL,422,1.498225,-0.015182
aVL,423,1.501775,-0.017953
aVL,424,1.505325,-0.022372
aVL,425,1.508876,-0.025029
aVL,426,1.512426,-0.025562
aVL,427,1.515976,-0.026022
aVL,428,1.519527,-0.02659
aVL,429,1.523077,-0.026868
aVL,430,1.526627,-0.027107
aVL,431,1.530178,-0.027472
aVL,432,1.533728,-0.027981
aVL,433,1.537278,-0.028509
aVL,434,1.540828,-0.028885
aVL,435,1.544379,-0.029136
aVL,436,1.547929,-0.029402
aVL,437,1.551479,-0.029824
aVL,438,1.55503,-0.030361
aVL,439,1.55858,-0.030717
aVL,440,1.56213,-0.031122
aVL,441,1.56568,-0.031289
aVL,442,1.569231,-0.029254
aVL,443,1.572781,-0.02553
aVL,444,1.576331,-0.023625
aVL,445,1.579882,-0.023899
aVL,446,1.583432,-0.024254
aVL,447,1.586982,-0.024424
aVL,448,1.590533,-0.024828
aVL,449,1.594083,-0.025262
aVL,450,1.597633,-0.025602
aVL,451,1.601183,-0.025947
aVL,452,1.604734,-0.026054
aVL,453,1.608284,-0.0264
aVL,454,1.611834,-0.029142
aVL,455,1.615385,-0.033728
aVL,456,1.618935,-0.036306
aVL,457,1.622485,-0.036705
aVL,458,1.626036,-0.036751
aVL,459,1.629586,-0.034781
aVL,460,1.633136,-0.030937
aVL,461,1.636686,-0.028894
aVL,462,1.640237,-0.02907
aVL,463,1.643787,-0.029378
aVL,464,1.647337,-0.029546
aVL,465,1.650888,-0.029875
aVL,466,1.654438,-0.0302
aVL,467,1.657988,-0.030446
aVL,468,1.661538,-0.030615
aVL,469,1.665089,-0.030893
aVL,470,1.668639,-0.031009
aVL,471,1.672189,-0.03135
aVL,472,1.67574,-0.033997
aVL,473,1.67929,-0.038298
aVL,474,1.68284,-0.040967
aVL,475,1.686391,-0.041165
aVL,476,1.689941,-0.038863
aVL,477,1.693491,-0.035062
aVL,478,1.697041,-0.032786
aVL,479,1.700592,-0.032905
aVL,480,1.704142,-0.035699
aVL,481,1.707692,-0.039911
aVL,482,1.711243,-0.040089
aVL,483,1.714793,-0.036089
aVL,484,1.718343,-0.033848
aVL,485,1.721893,-0.033974
aVL,486,1.725444,-0.034327
aVL,487,1.728994,-0.036742
aVL,488,1.732544,-0.041036
aVL,489,1.736095,-0.043378
aVL,490,1.739645,-0.043731
aVL,491,1.743195,-0.043804
aVL,492,1.746746,-0.041729
aVL,493,1.750296,-0.037566
aVL,494,1.753846,-0.035123
aVL,495,1.757396,-0.035181
aVL,496,1.760947,-0.035394
aVL,497,1.764497,-0.035668
aVL,498,1.768047,-0.038194
aVL,499,1.771598,-0.042285
aVL,500,1.775148,-0.044503
aVL,501,1.778698,-0.044642
aVL,502,1.782249,-0.044799
aVL,503,1.785799,-0.045156
aVL,504,1.789349,-0.045161
aVL,505,1.792899,-0.044868
aVL,506,1.79645,-0.044837
aVL,507,1.8,-0.044882
aVL,508,1.80355,-0.042942
aVL,509,1.807101,-0.038836
aVL,510,1.810651,-0.036377
aVL,511,1.814201,-0.038361
aVL,512,1.817751,-0.042546
aVL,513,1.821302,-0.045083
aVL,514,1.824852,-0.045534
aVL,515,1.828402,-0.045357
aVL,516,1.831953,-0.045208
aVL,517,1.835503,-0.044783
aVL,518,1.839053,-0.042447
aVL,519,1.842604,-0.038619
aVL,520,1.846154,-0.036478
aVL,521,1.849704,-0.036213
aVL,522,1.853254,-0.035866
aVL,523,1.856805,-0.035525
aVL,524,1.860355,-0.035734
aVL,525,1.863905,-0.036081
aVL,526,1.867456,-0.03611
aVL,527,1.871006,-0.035692
aVL,528,1.874556,-0.035189
aVL,529,1.878107,-0.035082
aVL,530,1.881657,-0.035347
aVL,531,1.885207,-0.035667
aVL,532,1.888757,-0.035412
aVL,533,1.892308,-0.03474
aVL,534,1.895858,-0.036792
aVL,535,1.899408,-0.043277
aVL,536,1.902959,-0.05026
aVL,537,1.906509,-0.055075
aVL,538,1.910059,-0.058783
aVL,539,1.913609,-0.060392
aVL,540,1.91716,-0.057902
aVL,541,1.92071,-0.0514
aVL,542,1.92426,-0.042908
aVL,543,1.927811,-0.03609
aVL,544,1.931361,-0.033061
aVL,545,1.934911,-0.032384
aVL,546,1.938462,-0.032363
aVL,547,1.942012,-0.032679
aVL,548,1.945562,-0.032846
aVL,549,1.949112,-0.03234
aVL,550,1.952663,-0.031475
aVL,551,1.956213,-0.030967
aVL,552,1.959763,-0.031115
aVL,553,1.963314,-0.031469
aVL,554,1.966864,-0.031338
aVL,555,1.970414,-0.030533
aVL,556,1.973964,-0.029636
aVL,557,1.977515,-0.029435
aVL,558,1.981065,-0.029643
aVL,559,1.984615,-0.029948
aVL,560,1.988166,-0.03175
aVL,561,1.991716,-0.035033
aVL,562,1.995266,-0.036558
aVL,563,1.998817,-0.034329
aVL,564,2.002367,-0.030291
aVL,565,2.005917,-0.028043
aVL,566,2.009467,-0.029405
aVL,567,2.013018,-0.032754
aVL,568,2.016568,-0.034477
aVL,569,2.020118,-0.032403
aVL,570,2.023669,-0.028376
aVL,571,2.027219,-0.025659
aVL,572,2.030769,-0.024486
aVL,573,2.03432,-0.023721
aVL,574,2.03787,-0.023311
aVL,575,2.04142,-0.023708
aVL,576,2.04497,-0.02598
aVL,577,2.048521,-0.02949
aVL,578,2.052071,-0.030642
aVL,579,2.055621,-0.027617
aVL,580,2.059172,-0.023323
aVL,581,2.062722,-0.021245
aVL,582,2.066272,-0.020801
aVL,583,2.069822,-0.019883
aVL,584,2.073373,-0.018718
aVL,585,2.076923,-0.018264
aVL,586,2.080473,-0.018377
aVL,587,2.084024,-0.018369
aVL,588,2.087574,-0.017694
aVL,589,2.091124,-0.016517
aVL,590,2.094675,-0.015575
aVL,591,2.098225,-0.015317
aVL,592,2.101775,-0.015417
aVL,593,2.105325,-0.015137
aVL,594,2.108876,-0.014183
aVL,595,2.112426,-0.012976
aVL,596,2.115976,-0.012216
aVL,597,2.119527,-0.012186
aVL,598,2.123077,-0.012041
aVL,599,2.126627,-0.011555
aVL,600,2.130178,-0.012668
aVL,601,2.133728,-0.015815
aVL,602,2.137278,-0.017675
aVL,603,2.140828,-0.015211
aVL,604,2.144379,-0.010728
aVL,605,2.147929,-0.009914
aVL,606,2.151479,-0.012747
aVL,607,2.15503,-0.014287
aVL,608,2.15858,-0.013946
aVL,609,2.16213,-0.013727
aVL,610,2.16568,-0.013241
aVL,611,2.169231,-0.012077
aVL,612,2.172781,-0.010913
aVL,613,2.176331,-0.010119
aVL,614,2.179882,-0.009995
aVL,615,2.183432,-0.009599
aVL,616,2.186982,-0.006335
aVL,617,2.190533,-0.000993
aVL,618,2.194083,0.002547
aVL,619,2.197633,0.003066
aVL,620,2.201183,0.00084
aVL,621,2.204734,-0.002586
aVL,622,2.208284,-0.003961
aVL,623,2.211834,-0.002683
aVL,624,2.215385,0.000614
aVL,625,2.218935,0.00523
aVL,626,2.222485,0.007918
aVL,627,2.226036,0.006649
aVL,628,2.229586,0.003386
aVL,629,2.233136,0.001698
aVL,630,2.236686,0.003803
aVL,631,2.240237,0.007732
aVL,632,2.243787,0.009865
aVL,633,2.247337,0.010148
aVL,634,2.250888,0.010652
aVL,635,2.254438,0.010874
aVL,636,2.257988,0.008266
aVL,637,2.261538,0.00375
aVL,638,2.265089,0.001389
aVL,639,2.268639,0.001704
aVL,640,2.272189,0.00223
aVL,641,2.27574,0.002192
aVL,642,2.27929,0.001927
aVL,643,2.28284,0.001697
aVL,644,2.286391,0.001835
aVL,645,2.289941,0.002257
aVL,646,2.293491,0.002534
aVL,647,2.297041,0.002432
aVL,648,2.300592,0.00213
aVL,649,2.304142,0.002026
aVL,650,2.307692,0.002291
aVL,651,2.311243,0.00268
aVL,652,2.314793,0.002818
aVL,653,2.318343,0.002612
aVL,654,2.321893,0.002353
aVL,655,2.325444,0.002384
aVL,656,2.328994,0.002718
aVL,657,2.332544,0.003033
aVL,658,2.336095,0.00303
aVL,659,2.339645,0.00277
aVL,660,2.343195,0.002595
aVL,661,2.346746,0.002747
aVL,662,2.350296,0.0031
aVL,663,2.353846,0.003305
aVL,664,2.357396,0.003182
aVL,665,2.360947,0.002916
aVL,666,2.364497,0.002848
aVL,667,2.368047,0.003093
aVL,668,2.371598,0.003416
aVL,669,2.375148,0.003495
aVL,670,2.378698,0.003284
aVL,671,2.382249,0.003056
aVL,672,2.385799,0.0031
aVL,673,2.389349,0.003407
aVL,674,2.392899,0.003645
aVL,675,2.39645,0.003606
aVF,0,0.0,0.032882
aVF,1,0.00355,0.022841
aVF,2,0.007101,-0.076686
aVF,3,0.010651,-0.090069
aVF,4,0.014201,-0.017931
aVF,5,0.017751,-0.00491
aVF,6,0.021302,-0.014117
aVF,7,0.024852,0.005086
aVF,8,0.028402,0.009999
aVF,9,0.031953,-0.001994
aVF,10,0.035503,-0.004574
aVF,11,0.039053,-0.00228
aVF,12,0.042604,-0.001377
aVF,13,0.046154,0.000492
aVF,14,0.049704,0.001591
aVF,15,0.053254,0.001351
aVF,16,0.056805,0.001299
aVF,17,0.060355,0.002202
aVF,18,0.063905,0.003796
aVF,19,0.067456,0.005792
aVF,20,0.071006,0.008146
aVF,21,0.074556,0.010148
aVF,22,0.078107,0.01217
aVF,23,0.081657,0.01535
aVF,24,0.085207,0.019321
aVF,25,0.088757,0.022689
aVF,26,0.092308,0.024924
aVF,27,0.095858,0.026607
aVF,28,0.099408,0.028479
aVF,29,0.102959,0.031668
aVF,30,0.106509,0.035726
aVF,31,0.110059,0.039095
aVF,32,0.113609,0.043452
aVF,33,0.11716,0.051305
aVF,34,0.12071,0.060109
aVF,35,0.12426,0.065725
aVF,36,0.127811,0.070398
aVF,37,0.131361,0.073796
aVF,38,0.134911,0.072552
aVF,39,0.138462,0.070491
aVF,40,0.142012,0.064894
aVF,41,0.145562,0.057087
aVF,42,0.149112,0.059474
aVF,43,0.152663,0.067195
aVF,44,0.156213,0.072223
aVF,45,0.159763,0.077885
aVF,46,0.163314,0.083751
aVF,47,0.166864,0.087138
aVF,48,0.170414,0.086294
aVF,49,0.173964,0.082756
aVF,50,0.177515,0.080075
aVF,51,0.181065,0.078721
aVF,52,0.184615,0.079863
aVF,53,0.188166,0.083128
aVF,54,0.191716,0.085636
aVF,55,0.195266,0.08872
aVF,56,0.198817,0.093791
aVF,57,0.202367,0.098426
aVF,58,0.205917,0.102121
aVF,59,0.209467,0.105565
aVF,60,0.213018,0.107343
aVF,61,0.216568,0.107449
aVF,62,0.220118,0.108268
aVF,63,0.223669,0.111048
aVF,64,0.227219,0.114716
aVF,65,0.230769,0.11738
aVF,66,0.23432,0.118295
aVF,67,0.23787,0.118394
aVF,68,0.24142,0.119846
aVF,69,0.24497,0.123591
aVF,70,0.248521,0.127996
aVF,71,0.252071,0.132796
aVF,72,0.255621,0.136985
aVF,73,0.259172,0.138291
aVF,74,0.262722,0.139657
aVF,75,0.266272,0.143391
aVF,76,0.269822,0.146621
aVF,77,0.273373,0.147668
aVF,78,0.276923,0.147416
aVF,79,0.280473,0.147711
aVF,80,0.284024,0.15046
aVF,81,0.287574,0.15417
aVF,82,0.291124,0.155671
aVF,83,0.294675,0.154179
aVF,84,0.298225,0.147899
aVF,85,0.301775,0.14079
aVF,86,0.305325,0.141783
aVF,87,0.308876,0.146732
aVF,88,0.312426,0.147851
aVF,89,0.315976,0.147091
aVF,90,0.319527,0.148112
aVF,91,0.323077,0.153237
aVF,92,0.326627,0.16046
aVF,93,0.330178,0.164871
aVF,94,0.333728,0.164938
aVF,95,0.337278,0.160105
aVF,96,0.340828,0.155012
aVF,97,0.344379,0.156551
aVF,98,0.347929,0.161351
aVF,99,0.351479,0.163689
aVF,100,0.35503,0.163604
aVF,101,0.35858,0.162809
aVF,102,0.36213,0.163848
aVF,103,0.36568,0.168032
aVF,104,0.369231,0.172816
aVF,105,0.372781,0.174619
aVF,106,0.376331,0.17339
aVF,107,0.379882,0.172122
aVF,108,0.383432,0.174013
aVF,109,0.386982,0.17982
aVF,110,0.390533,0.182807
aVF,111,0.394083,0.184027
aVF,112,0.397633,0.183732
aVF,113,0.401183,0.174368
aVF,114,0.404734,0.194792
aVF,115,0.408284,0.183584
aVF,116,0.411834,0.171526
aVF,117,0.415385,0.267504
aVF,118,0.418935,0.043333
aVF,119,0.422485,-0.578172
aVF,120,0.426036,-0.885022
aVF,121,0.429586,-0.514777
aVF,122,0.433136,0.062018
aVF,123,0.436686,0.250445
aVF,124,0.440237,0.251536
aVF,125,0.443787,0.055794
aVF,126,0.447337,-0.521006
aVF,127,0.450888,-0.85155
aVF,128,0.454438,-0.491577
aVF,129,0.457988,0.073576
aVF,130,0.461538,0.233138
aVF,131,0.465089,0.260898
aVF,132,0.468639,0.03179
aVF,133,0.472189,-0.617683
aVF,134,0.47574,-0.902776
aVF,135,0.47929,-0.899302
aVF,136,0.48284,-0.628689
aVF,137,0.486391,0.030402
aVF,138,0.489941,0.297338
aVF,139,0.493491,0.171363
aVF,140,0.497041,0.204355
aVF,141,0.500592,0.313647
aVF,142,0.504142,0.002853
aVF,143,0.507692,-0.377389
aVF,144,0.511243,-0.00614
aVF,145,0.514793,0.412354
aVF,146,0.518343,0.048342
aVF,147,0.521893,-0.344938
aVF,148,0.525444,-0.010541
aVF,149,0.528994,0.376377
aVF,150,0.532544,-0.033874
aVF,151,0.536095,-0.451422
aVF,152,0.539645,-0.019096
aVF,153,0.543195,0.39935
aVF,154,0.546746,0.005399
aVF,155,0.550296,-0.589133
aVF,156,0.553846,-0.721046
aVF,157,0.557396,-0.665371
aVF,158,0.560947,-0.463232
aVF,159,0.564497,0.038881
aVF,160,0.568047,0.329567
aVF,161,0.571598,0.048394
aVF,162,0.575148,-0.424675
aVF,163,0.578698,-0.554599
aVF,164,0.582249,-0.602626
aVF,165,0.585799,-0.482793
aVF,166,0.589349,0.117739
aVF,167,0.592899,0.157445
aVF,168,0.59645,-0.43874
aVF,169,0.6,-0.599804
aVF,170,0.60355,-0.534241
aVF,171,0.607101,-0.609866
aVF,172,0.610651,-0.637508
aVF,173,0.614201,-0.574351
aVF,174,0.617751,-0.518008
aVF,175,0.621302,-0.608923
aVF,176,0.624852,-0.454265
aVF,177,0.628402,0.061214
aVF,178,0.631953,0.262158
aVF,179,0.635503,0.193239
aVF,180,0.639053,0.221551
aVF,181,0.642604,0.221452
aVF,182,0.646154,0.18896
aVF,183,0.649704,0.220728
aVF,184,0.653254,0.233662
aVF,185,0.656805,0.221737
aVF,186,0.660355,0.301239
aVF,187,0.663905,0.101125
aVF,188,0.667456,-0.486801
aVF,189,0.671006,-0.642452
aVF,190,0.674556,-0.197415
aVF,191,0.678107,0.165049
aVF,192,0.681657,0.207451
aVF,193,0.685207,0.167044
aVF,194,0.688757,0.175536
aVF,195,0.692308,0.188781
aVF,196,0.695858,0.19311
aVF,197,0.699408,0.191512
aVF,198,0.702959,0.178702
aVF,199,0.706509,0.171641
aVF,200,0.710059,0.176826
aVF,201,0.713609,0.187032
aVF,202,0.71716,0.19075
aVF,203,0.72071,0.183234
aVF,204,0.72426,0.172586
aVF,205,0.727811,0.169999
aVF,206,0.731361,0.177316
aVF,207,0.734911,0.185465
aVF,208,0.738462,0.184734
aVF,209,0.742012,0.17555
aVF,210,0.745562,0.167585
aVF,211,0.749112,0.168782
aVF,212,0.752663,0.176846
aVF,213,0.756213,0.181653
aVF,214,0.759763,0.177474
aVF,215,0.763314,0.170709
aVF,216,0.766864,0.1701
aVF,217,0.770414,0.176498
aVF,218,0.773964,0.184682
aVF,219,0.777515,0.186401
aVF,220,0.781065,0.178903
aVF,221,0.784615,0.170518
aVF,222,0.788166,0.169339
aVF,223,0.791716,0.174648
aVF,224,0.795266,0.179688
aVF,225,0.798817,0.178071
aVF,226,0.802367,0.170712
aVF,227,0.805917,0.165039
aVF,228,0.809467,0.16631
aVF,229,0.813018,0.171858
aVF,230,0.816568,0.174394
aVF,231,0.820118,0.170228
aVF,232,0.823669,0.163168
aVF,233,0.827219,0.159905
aVF,234,0.830769,0.163113
aVF,235,0.83432,0.168387
aVF,236,0.83787,0.169235
aVF,237,0.84142,0.16648
aVF,238,0.84497,0.164493
aVF,239,0.848521,0.164841
aVF,240,0.852071,0.168186
aVF,241,0.855621,0.170846
aVF,242,0.859172,0.16739
aVF,243,0.862722,0.158342
aVF,244,0.866272,0.150405
aVF,245,0.869822,0.150605
aVF,246,0.873373,0.157207
aVF,247,0.876923,0.161998
aVF,248,0.880473,0.160683
aVF,249,0.884024,0.156893
aVF,250,0.887574,0.156224
aVF,251,0.891124,0.157836
aVF,252,0.894675,0.158263
aVF,253,0.898225,0.156543
aVF,254,0.901775,0.152143
aVF,255,0.905325,0.147514
aVF,256,0.908876,0.146981
aVF,257,0.912426,0.149735
aVF,258,0.915976,0.151102
aVF,259,0.919527,0.148439
aVF,260,0.923077,0.1437
aVF,261,0.926627,0.140751
aVF,262,0.930178,0.141162
aVF,263,0.933728,0.143981
aVF,264,0.937278,0.144366
aVF,265,0.940828,0.13926
aVF,266,0.944379,0.132922
aVF,267,0.947929,0.125834
aVF,268,0.951479,0.119047
aVF,269,0.95503,0.11795
aVF,270,0.95858,0.117646
aVF,271,0.96213,0.113299
aVF,272,0.96568,0.109779
aVF,273,0.969231,0.109888
aVF,274,0.972781,0.112202
aVF,275,0.976331,0.115391
aVF,276,0.979882,0.116631
aVF,277,0.983432,0.114058
aVF,278,0.986982,0.112164
aVF,279,0.990533,0.112742
aVF,280,0.994083,0.112386
aVF,281,0.997633,0.110507
aVF,282,1.001183,0.104897
aVF,283,1.004734,0.097222
aVF,284,1.008284,0.096817
aVF,285,1.011834,0.10249
aVF,286,1.015385,0.104597
aVF,287,1.018935,0.102396
aVF,288,1.022485,0.099828
aVF,289,1.026036,0.097692
aVF,290,1.029586,0.096681
aVF,291,1.033136,0.097032
aVF,292,1.036686,0.096586
aVF,293,1.040237,0.094111
aVF,294,1.043787,0.090954
aVF,295,1.047337,0.089074
aVF,296,1.050888,0.088953
aVF,297,1.054438,0.08915
aVF,298,1.057988,0.087921
aVF,299,1.061538,0.085069
aVF,300,1.065089,0.08225
aVF,301,1.068639,0.081115
aVF,302,1.072189,0.081275
aVF,303,1.07574,0.080931
aVF,304,1.07929,0.079003
aVF,305,1.08284,0.076144
aVF,306,1.086391,0.073947
aVF,307,1.089941,0.073226
aVF,308,1.093491,0.073171
aVF,309,1.097041,0.072261
aVF,310,1.100592,0.069972
aVF,311,1.104142,0.067329
aVF,312,1.107692,0.065663
aVF,313,1.111243,0.06523
aVF,314,1.114793,0.064905
aVF,315,1.118343,0.063359
aVF,316,1.121893,0.061081
aVF,317,1.125444,0.059611
aVF,318,1.128994,0.059338
aVF,319,1.132544,0.059805
aVF,320,1.136095,0.06009
aVF,321,1.139645,0.059065
aVF,322,1.143195,0.057361
aVF,323,1.146746,0.056823
aVF,324,1.150296,0.057064
aVF,325,1.153846,0.057628
aVF,326,1.157396,0.059499
aVF,327,1.160947,0.060929
aVF,328,1.164497,0.061365
aVF,329,1.168047,0.063467
aVF,330,1.171598,0.065153
aVF,331,1.175148,0.064187
aVF,332,1.178698,0.062128
aVF,333,1.182249,0.055309
aVF,334,1.185799,0.045146
aVF,335,1.189349,0.041475
aVF,336,1.192899,0.042306
aVF,337,1.19645,0.040432
aVF,338,1.2,0.037163
aVF,339,1.20355,0.034599
aVF,340,1.207101,0.032169
aVF,341,1.210651,0.029804
aVF,342,1.214201,0.027762
aVF,343,1.217751,0.025527
aVF,344,1.221302,0.022544
aVF,345,1.224852,0.019621
aVF,346,1.228402,0.017997
aVF,347,1.231953,0.017265
aVF,348,1.235503,0.016341
aVF,349,1.239053,0.014829
aVF,350,1.242604,0.012912
aVF,351,1.246154,0.011179
aVF,352,1.249704,0.009866
aVF,353,1.253254,0.009275
aVF,354,1.256805,0.008725
aVF,355,1.260355,0.006642
aVF,356,1.263905,0.004628
aVF,357,1.267456,0.002854
aVF,358,1.271006,-0.002232
aVF,359,1.274556,-0.007308
aVF,360,1.278107,-0.006557
aVF,361,1.281657,-0.001486
aVF,362,1.285207,0.005119
aVF,363,1.288757,0.012804
aVF,364,1.292308,0.021143
aVF,365,1.295858,0.026087
aVF,366,1.299408,0.022333
aVF,367,1.302959,0.012077
aVF,368,1.306509,0.002893
aVF,369,1.310059,-0.003629
aVF,370,1.313609,-0.012906
aVF,371,1.31716,-0.022534
aVF,372,1.32071,-0.025786
aVF,373,1.32426,-0.026407
aVF,374,1.327811,-0.028101
aVF,375,1.331361,-0.029224
aVF,376,1.334911,-0.029889
aVF,377,1.338462,-0.031253
aVF,378,1.342012,-0.035155
aVF,379,1.345562,-0.040795
aVF,380,1.349112,-0.044492
aVF,381,1.352663,-0.045404
aVF,382,1.356213,-0.043905
aVF,383,1.359763,-0.041111
aVF,384,1.363314,-0.040249
aVF,385,1.366864,-0.041576
aVF,386,1.370414,-0.042776
aVF,387,1.373964,-0.043573
aVF,388,1.377515,-0.044615
aVF,389,1.381065,-0.04604
aVF,390,1.384615,-0.047369
aVF,391,1.388166,-0.048706
aVF,392,1.391716,-0.052016
aVF,393,1.395266,-0.057073
aVF,394,1.398817,-0.060547
aVF,395,1.402367,-0.061873
aVF,396,1.405917,-0.06324
aVF,397,1.409467,-0.064388
aVF,398,1.413018,-0.062887
aVF,399,1.416568,-0.059594
aVF,400,1.420118,-0.058349
aVF,401,1.423669,-0.059587
aVF,402,1.427219,-0.06098
aVF,403,1.430769,-0.061919
aVF,404,1.43432,-0.062781
aVF,405,1.43787,-0.063667
aVF,406,1.44142,-0.064733
aVF,407,1.44497,-0.066086
aVF,408,1.448521,-0.067166
aVF,409,1.452071,-0.068075
aVF,410,1.455621,-0.071321
aVF,411,1.459172,-0.076314
aVF,412,1.462722,-0.077417
aVF,413,1.466272,-0.074495
aVF,414,1.469822,-0.073151
aVF,415,1.473373,-0.073865
aVF,416,1.476923,-0.074774
aVF,417,1.480473,-0.077856
aVF,418,1.484024,-0.08329
aVF,419,1.487574,-0.086716
aVF,420,1.491124,-0.085347
aVF,421,1.494675,-0.081766
aVF,422,1.498225,-0.08018
aVF,423,1.501775,-0.080995
aVF,424,1.505325,-0.082204
aVF,425,1.508876,-0.083165
aVF,426,1.512426,-0.083968
aVF,427,1.515976,-0.084575
aVF,428,1.519527,-0.085261
aVF,429,1.523077,-0.086212
aVF,430,1.526627,-0.087272
aVF,431,1.530178,-0.088169
aVF,432,1.533728,-0.088785
aVF,433,1.537278,-0.089309
aVF,434,1.540828,-0.090032
aVF,435,1.544379,-0.091011
aVF,436,1.547929,-0.092002
aVF,437,1.551479,-0.092726
aVF,438,1.55503,-0.093188
aVF,439,1.55858,-0.093679
aVF,440,1.56213,-0.094455
aVF,441,1.56568,-0.095442
aVF,442,1.569231,-0.096309
aVF,443,1.572781,-0.096837
aVF,444,1.576331,-0.097176
aVF,445,1.579882,-0.097683
aVF,446,1.583432,-0.098522
aVF,447,1.586982,-0.099471
aVF,448,1.590533,-0.10016
aVF,449,1.594083,-0.100491
aVF,450,1.597633,-0.100757
aVF,451,1.601183,-0.101323
aVF,452,1.604734,-0.10221
aVF,453,1.608284,-0.103059
aVF,454,1.611834,-0.103529
aVF,455,1.615385,-0.103684
aVF,456,1.618935,-0.10394
aVF,457,1.622485,-0.104597
aVF,458,1.626036,-0.105486
aVF,459,1.629586,-0.106175
aVF,460,1.633136,-0.1064
aVF,461,1.636686,-0.10641
aVF,462,1.640237,-0.106783
aVF,463,1.643787,-0.107419
aVF,464,1.647337,-0.108342
aVF,465,1.650888,-0.111055
aVF,466,1.654438,-0.115424
aVF,467,1.657988,-0.117579
aVF,468,1.661538,-0.115775
aVF,469,1.665089,-0.114559
aVF,470,1.668639,-0.117269
aVF,471,1.672189,-0.11968
aVF,472,1.67574,-0.117332
aVF,473,1.67929,-0.112911
aVF,474,1.68284,-0.111227
aVF,475,1.686391,-0.111838
aVF,476,1.689941,-0.112444
aVF,477,1.693491,-0.114824
aVF,478,1.697041,-0.118653
aVF,479,1.700592,-0.118664
aVF,480,1.704142,-0.115186
aVF,481,1.707692,-0.113312
aVF,482,1.711243,-0.113718
aVF,483,1.714793,-0.115819
aVF,484,1.718343,-0.119668
aVF,485,1.721893,-0.122145
aVF,486,1.725444,-0.120375
aVF,487,1.728994,-0.11675
aVF,488,1.732544,-0.114542
aVF,489,1.736095,-0.112792
aVF,490,1.739645,-0.111903
aVF,491,1.743195,-0.113438
aVF,492,1.746746,-0.114634
aVF,493,1.750296,-0.114785
aVF,494,1.753846,-0.116893
aVF,495,1.757396,-0.120672
aVF,496,1.760947,-0.122625
aVF,497,1.764497,-0.120681
aVF,498,1.768047,-0.116819
aVF,499,1.771598,-0.114729
aVF,500,1.775148,-0.114216
aVF,501,1.778698,-0.112691
aVF,502,1.782249,-0.11084
aVF,503,1.785799,-0.108931
aVF,504,1.789349,-0.105797
aVF,505,1.792899,-0.104704
aVF,506,1.79645,-0.108267
aVF,507,1.8,-0.112242
aVF,508,1.80355,-0.112999
aVF,509,1.807101,-0.112775
aVF,510,1.810651,-0.113037
aVF,511,1.814201,-0.112667
aVF,512,1.817751,-0.111904
aVF,513,1.821302,-0.111436
aVF,514,1.824852,-0.111365
aVF,515,1.828402,-0.111506
aVF,516,1.831953,-0.11138
aVF,517,1.835503,-0.110804
aVF,518,1.839053,-0.110071
aVF,519,1.842604,-0.109624
aVF,520,1.846154,-0.109547
aVF,521,1.849704,-0.109491
aVF,522,1.853254,-0.109229
aVF,523,1.856805,-0.108407
aVF,524,1.860355,-0.107699
aVF,525,1.863905,-0.109706
aVF,526,1.867456,-0.113653
aVF,527,1.871006,-0.115801
aVF,528,1.874556,-0.11781
aVF,529,1.878107,-0.121023
aVF,530,1.881657,-0.120293
aVF,531,1.885207,-0.115784
aVF,532,1.888757,-0.113069
aVF,533,1.892308,-0.110354
aVF,534,1.895858,-0.103295
aVF,535,1.899408,-0.093298
aVF,536,1.902959,-0.083665
aVF,537,1.906509,-0.074586
aVF,538,1.910059,-0.064396
aVF,539,1.913609,-0.058858
aVF,540,1.91716,-0.063267
aVF,541,1.92071,-0.071412
aVF,542,1.92426,-0.082198
aVF,543,1.927811,-0.096003
aVF,544,1.931361,-0.103846
aVF,545,1.934911,-0.104631
aVF,546,1.938462,-0.103911
aVF,547,1.942012,-0.102877
aVF,548,1.945562,-0.101965
aVF,549,1.949112,-0.101446
aVF,550,1.952663,-0.100869
aVF,551,1.956213,-0.100046
aVF,552,1.959763,-0.098956
aVF,553,1.963314,-0.097838
aVF,554,1.966864,-0.097
aVF,555,1.970414,-0.096415
aVF,556,1.973964,-0.095641
aVF,557,1.977515,-0.094765
aVF,558,1.981065,-0.09346
aVF,559,1.984615,-0.089938
aVF,560,1.988166,-0.084979
aVF,561,1.991716,-0.081824
aVF,562,1.995266,-0.081028
aVF,563,1.998817,-0.082187
aVF,564,2.002367,-0.085174
aVF,565,2.005917,-0.08626
aVF,566,2.009467,-0.082922
aVF,567,2.013018,-0.079287
aVF,568,2.016568,-0.076839
aVF,569,2.020118,-0.073909
aVF,570,2.023669,-0.074056
aVF,571,2.027219,-0.077425
aVF,572,2.030769,-0.078763
aVF,573,2.03432,-0.077968
aVF,574,2.03787,-0.076663
aVF,575,2.04142,-0.07288
aVF,576,2.04497,-0.067208
aVF,577,2.048521,-0.063742
aVF,578,2.052071,-0.062602
aVF,579,2.055621,-0.061747
aVF,580,2.059172,-0.062591
aVF,581,2.062722,-0.065326
aVF,582,2.066272,-0.066127
aVF,583,2.069822,-0.062706
aVF,584,2.073373,-0.057226
aVF,585,2.076923,-0.053854
aVF,586,2.080473,-0.054473
aVF,587,2.084024,-0.0572
aVF,588,2.087574,-0.060284
aVF,589,2.091124,-0.063441
aVF,590,2.094675,-0.06445
aVF,591,2.098225,-0.06082
aVF,592,2.101775,-0.054839
aVF,593,2.105325,-0.05084
aVF,594,2.108876,-0.049268
aVF,595,2.112426,-0.048129
aVF,596,2.115976,-0.04666
aVF,597,2.119527,-0.045222
aVF,598,2.123077,-0.043376
aVF,599,2.126627,-0.039271
aVF,600,2.130178,-0.033608
aVF,601,2.133728,-0.029884
aVF,602,2.137278,-0.028337
aVF,603,2.140828,-0.026748
aVF,604,2.144379,-0.024715
aVF,605,2.147929,-0.023076
aVF,606,2.151479,-0.021568
aVF,607,2.15503,-0.017637
aVF,608,2.15858,-0.011837
aVF,609,2.16213,-0.007928
aVF,610,2.16568,-0.005888
aVF,611,2.169231,-0.006972
aVF,612,2.172781,-0.010587
aVF,613,2.176331,-0.010379
aVF,614,2.179882,-0.007479
aVF,615,2.183432,-0.005777
aVF,616,2.186982,-0.003946
aVF,617,2.190533,-0.002028
aVF,618,2.194083,-0.000506
aVF,619,2.197633,0.001257
aVF,620,2.201183,0.003277
aVF,621,2.204734,0.005402
aVF,622,2.208284,0.00739
aVF,623,2.211834,0.009121
aVF,624,2.215385,0.010826
aVF,625,2.218935,0.012753
aVF,626,2.222485,0.014945
aVF,627,2.226036,0.017167
aVF,628,2.229586,0.01904
aVF,629,2.233136,0.020904
aVF,630,2.236686,0.022689
aVF,631,2.240237,0.02247
aVF,632,2.243787,0.020592
aVF,633,2.247337,0.020499
aVF,634,2.250888,0.022248
aVF,635,2.254438,0.024229
aVF,636,2.257988,0.028538
aVF,637,2.261538,0.035169
aVF,638,2.265089,0.039709
aVF,639,2.268639,0.041765
aVF,640,2.272189,0.044109
aVF,641,2.27574,0.046418
aVF,642,2.27929,0.048317
aVF,643,2.28284,0.050601
aVF,644,2.286391,0.052962
aVF,645,2.289941,0.055258
aVF,646,2.293491,0.056836
aVF,647,2.297041,0.056961
aVF,648,2.300592,0.056848
aVF,649,2.304142,0.057113
aVF,650,2.307692,0.057037
aVF,651,2.311243,0.056635
aVF,652,2.314793,0.056169
aVF,653,2.318343,0.056054
aVF,654,2.321893,0.056661
aVF,655,2.325444,0.057842
aVF,656,2.328994,0.060731
aVF,657,2.332544,0.063992
aVF,658,2.336095,0.063901
aVF,659,2.339645,0.06216
aVF,660,2.343195,0.059786
aVF,661,2.346746,0.055601
aVF,662,2.350296,0.054221
aVF,663,2.353846,0.057999
aVF,664,2.357396,0.062201
aVF,665,2.360947,0.063108
aVF,666,2.364497,0.062262
aVF,667,2.368047,0.061154
aVF,668,2.371598,0.057568
aVF,669,2.375148,0.052704
aVF,670,2.378698,0.051104
aVF,671,2.382249,0.054654
aVF,672,2.385799,0.060042
aVF,673,2.389349,0.061351
aVF,674,2.392899,0.05967
aVF,675,2.39645,0.05946
V1,0,0.0,-0.045137
V1,1,0.00355,0.047583
V1,2,0.007101,0.267361
V1,3,0.010651,0.070393
V1,4,0.014201,-0.111025
V1,5,0.017751,-0.039793
V1,6,0.021302,-0.061904
V1,7,0.024852,-0.079922
V1,8,0.028402,-0.048354
V1,9,0.031953,-0.031325
V1,10,0.035503,-0.015621
V1,11,0.039053,-0.018268
V1,12,0.042604,-0.027806
V1,13,0.046154,-0.025613
V1,14,0.049704,-0.015832
V1,15,0.053254,-0.007896
V1,16,0.056805,-0.010921
V1,17,0.060355,-0.023424
V1,18,0.063905,-0.031686
V1,19,0.067456,-0.026792
V1,20,0.071006,-0.014159
V1,21,0.074556,-0.007518
V1,22,0.078107,-0.012885
V1,23,0.081657,-0.02249
V1,24,0.085207,-0.025359
V1,25,0.088757,-0.009251
V1,26,0.092308,0.021548
V1,27,0.095858,0.047554
V1,28,0.099408,0.0765
V1,29,0.102959,0.112881
V1,30,0.106509,0.15501
V1,31,0.110059,0.196996
V1,32,0.113609,0.193823
V1,33,0.11716,0.167055
V1,34,0.12071,0.11214
V1,35,0.12426,-0.047227
V1,36,0.127811,-0.216443
V1,37,0.131361,-0.300065
V1,38,0.134911,-0.356231
V1,39,0.138462,-0.390923
V1,40,0.142012,-0.359579
V1,41,0.145562,-0.261822
V1,42,0.149112,-0.142287
V1,43,0.152663,-0.056447
V1,44,0.156213,-0.018323
V1,45,0.159763,-0.001401
V1,46,0.163314,0.01445
V1,47,0.166864,0.028462
V1,48,0.170414,0.039172
V1,49,0.173964,0.04107
V1,50,0.177515,0.027982
V1,51,0.181065,0.010693
V1,52,0.184615,0.005867
V1,53,0.188166,0.018477
V1,54,0.191716,0.037183
V1,55,0.195266,0.045003
V1,56,0.198817,0.037637
V1,57,0.202367,0.027233
V1,58,0.205917,0.028067
V1,59,0.209467,0.040931
V1,60,0.213018,0.052288
V1,61,0.216568,0.049045
V1,62,0.220118,0.036656
V1,63,0.223669,0.033308
V1,64,0.227219,0.044758
V1,65,0.230769,0.060035
V1,66,0.23432,0.067356
V1,67,0.23787,0.065368
V1,68,0.24142,0.061653
V1,69,0.24497,0.062571
V1,70,0.248521,0.068727
V1,71,0.252071,0.075147
V1,72,0.255621,0.073922
V1,73,0.259172,0.064851
V1,74,0.262722,0.057102
V1,75,0.266272,0.05808
V1,76,0.269822,0.067881
V1,77,0.273373,0.078292
V1,78,0.276923,0.080397
V1,79,0.280473,0.079144
V1,80,0.284024,0.082159
V1,81,0.287574,0.085126
V1,82,0.291124,0.086306
V1,83,0.294675,0.085474
V1,84,0.298225,0.077329
V1,85,0.301775,0.068575
V1,86,0.305325,0.071812
V1,87,0.308876,0.084163
V1,88,0.312426,0.090131
V1,89,0.315976,0.079504
V1,90,0.319527,0.061651
V1,91,0.323077,0.054658
V1,92,0.326627,0.06008
V1,93,0.330178,0.063661
V1,94,0.333728,0.054525
V1,95,0.337278,0.034409
V1,96,0.340828,0.016949
V1,97,0.344379,0.015389
V1,98,0.347929,0.028199
V1,99,0.351479,0.039712
V1,100,0.35503,0.03542
V1,101,0.35858,0.020019
V1,102,0.36213,0.007239
V1,103,0.36568,0.001282
V1,104,0.369231,0.003322
V1,105,0.372781,0.006386
V1,106,0.376331,-0.001492
V1,107,0.379882,-0.011894
V1,108,0.383432,-0.007641
V1,109,0.386982,0.014159
V1,110,0.390533,0.040645
V1,111,0.394083,0.05289
V1,112,0.397633,0.047298
V1,113,0.401183,0.038836
V1,114,0.404734,0.042152
V1,115,0.408284,0.057867
V1,116,0.411834,0.073762
V1,117,0.415385,0.077534
V1,118,0.418935,0.070504
V1,119,0.422485,0.069145
V1,120,0.426036,0.083957
V1,121,0.429586,0.103566
V1,122,0.433136,0.107875
V1,123,0.436686,0.091033
V1,124,0.440237,0.070571
V1,125,0.443787,0.067809
V1,126,0.447337,0.082692
V1,127,0.450888,0.096549
V1,128,0.454438,0.093433
V1,129,0.457988,0.076462
V1,130,0.461538,0.064962
V1,131,0.465089,0.073445
V1,132,0.468639,0.093295
V1,133,0.472189,0.100429
V1,134,0.47574,0.083799
V1,135,0.47929,0.058286
V1,136,0.48284,0.048757
V1,137,0.486391,0.066784
V1,138,0.489941,0.097246
V1,139,0.493491,0.111708
V1,140,0.497041,0.101171
V1,141,0.500592,0.084237
V1,142,0.504142,0.084508
V1,143,0.507692,0.104383
V1,144,0.511243,0.118702
V1,145,0.514793,0.106017
V1,146,0.518343,0.073581
V1,147,0.521893,0.054584
V1,148,0.525444,0.070637
V1,149,0.528994,0.089877
V1,150,0.532544,0.118462
V1,151,0.536095,0.09867
V1,152,0.539645,0.02545
V1,153,0.543195,0.142982
V1,154,0.546746,-0.034559
V1,155,0.550296,-0.785828
V1,156,0.553846,-0.801546
V1,157,0.557396,-0.05527
V1,158,0.560947,0.132707
V1,159,0.564497,0.011887
V1,160,0.568047,0.085826
V1,161,0.571598,0.110794
V1,162,0.575148,0.083562
V1,163,0.578698,0.060379
V1,164,0.582249,0.039038
V1,165,0.585799,0.058852
V1,166,0.589349,0.095788
V1,167,0.592899,0.114996
V1,168,0.59645,0.106191
V1,169,0.6,0.081223
V1,170,0.60355,0.070034
V1,171,0.607101,0.084525
V1,172,0.610651,0.102169
V1,173,0.614201,0.097265
V1,174,0.617751,0.072586
V1,175,0.621302,0.053691
V1,176,0.624852,0.061585
V1,177,0.628402,0.090616
V1,178,0.631953,0.111711
V1,179,0.635503,0.104616
V1,180,0.639053,0.079951
V1,181,0.642604,0.062969
V1,182,0.646154,0.066484
V1,183,0.649704,0.081404
V1,184,0.653254,0.082299
V1,185,0.656805,0.060115
V1,186,0.660355,0.038268
V1,187,0.663905,0.026619
V1,188,0.667456,0.021828
V1,189,0.671006,0.028489
V1,190,0.674556,0.027498
V1,191,0.678107,0.008399
V1,192,0.681657,0.002404
V1,193,0.685207,0.0255
V1,194,0.688757,0.057214
V1,195,0.692308,0.07763
V1,196,0.695858,0.080779
V1,197,0.699408,0.072959
V1,198,0.702959,0.071289
V1,199,0.706509,0.083875
V1,200,0.710059,0.100097
V1,201,0.713609,0.104042
V1,202,0.71716,0.08928
V1,203,0.72071,0.067734
V1,204,0.72426,0.05981
V1,205,0.727811,0.07067
V1,206,0.731361,0.085809
V1,207,0.734911,0.090334
V1,208,0.738462,0.084611
V1,209,0.742012,0.080235
V1,210,0.745562,0.085895
V1,211,0.749112,0.103234
V1,212,0.752663,0.124846
V1,213,0.756213,0.140735
V1,214,0.759763,0.163395
V1,215,0.763314,0.207052
V1,216,0.766864,0.258574
V1,217,0.770414,0.308199
V1,218,0.773964,0.33337
V1,219,0.777515,0.292596
V1,220,0.781065,0.214779
V1,221,0.784615,0.131765
V1,222,0.788166,-0.031258
V1,223,0.791716,-0.248367
V1,224,0.795266,-0.358255
V1,225,0.798817,-0.348675
V1,226,0.802367,-0.28539
V1,227,0.805917,-0.173745
V1,228,0.809467,-0.058412
V1,229,0.813018,0.018732
V1,230,0.816568,0.05907
V1,231,0.820118,0.074003
V1,232,0.823669,0.085648
V1,233,0.827219,0.091766
V1,234,0.830769,0.088345
V1,235,0.83432,0.088855
V1,236,0.83787,0.086672
V1,237,0.84142,0.078449
V1,238,0.84497,0.077539
V1,239,0.848521,0.083939
V1,240,0.852071,0.087369
V1,241,0.855621,0.083036
V1,242,0.859172,0.07571
V1,243,0.862722,0.075374
V1,244,0.866272,0.084637
V1,245,0.869822,0.095748
V1,246,0.873373,0.1001
V1,247,0.876923,0.09477
V1,248,0.880473,0.085742
V1,249,0.884024,0.084622
V1,250,0.887574,0.094128
V1,251,0.891124,0.104037
V1,252,0.894675,0.104874
V1,253,0.898225,0.097606
V1,254,0.901775,0.092633
V1,255,0.905325,0.098997
V1,256,0.908876,0.112023
V1,257,0.912426,0.119899
V1,258,0.915976,0.117465
V1,259,0.919527,0.107372
V1,260,0.923077,0.098266
V1,261,0.926627,0.098602
V1,262,0.930178,0.105184
V1,263,0.933728,0.107874
V1,264,0.937278,0.105551
V1,265,0.940828,0.104883
V1,266,0.944379,0.106697
V1,267,0.947929,0.107136
V1,268,0.951479,0.10622
V1,269,0.95503,0.103731
V1,270,0.95858,0.097695
V1,271,0.96213,0.092081
V1,272,0.96568,0.092325
V1,273,0.969231,0.095365
V1,274,0.972781,0.095019
V1,275,0.976331,0.090131
V1,276,0.979882,0.083709
V1,277,0.983432,0.080211
V1,278,0.986982,0.080151
V1,279,0.990533,0.078949
V1,280,0.994083,0.074031
V1,281,0.997633,0.065031
V1,282,1.001183,0.052788
V1,283,1.004734,0.042698
V1,284,1.008284,0.037529
V1,285,1.011834,0.032873
V1,286,1.015385,0.026058
V1,287,1.018935,0.015751
V1,288,1.022485,0.004694
V1,289,1.026036,0.001206
V1,290,1.029586,-0.001219
V1,291,1.033136,-0.008467
V1,292,1.036686,-0.00901
V1,293,1.040237,-0.003721
V1,294,1.043787,-0.00032
V1,295,1.047337,0.003997
V1,296,1.050888,0.010572
V1,297,1.054438,0.017646
V1,298,1.057988,0.02252
V1,299,1.061538,0.02444
V1,300,1.065089,0.028148
V1,301,1.068639,0.035567
V1,302,1.072189,0.04081
V1,303,1.07574,0.039785
V1,304,1.07929,0.037529
V1,305,1.08284,0.040672
V1,306,1.086391,0.047858
V1,307,1.089941,0.053654
V1,308,1.093491,0.057576
V1,309,1.097041,0.061514
V1,310,1.100592,0.063615
V1,311,1.104142,0.061775
V1,312,1.107692,0.057206
V1,313,1.111243,0.051385
V1,314,1.114793,0.044989
V1,315,1.118343,0.039214
V1,316,1.121893,0.035495
V1,317,1.125444,0.035231
V1,318,1.128994,0.037686
V1,319,1.132544,0.039834
V1,320,1.136095,0.040818
V1,321,1.139645,0.041185
V1,322,1.143195,0.040896
V1,323,1.146746,0.041932
V1,324,1.150296,0.044375
V1,325,1.153846,0.043029
V1,326,1.157396,0.03633
V1,327,1.160947,0.0306
V1,328,1.164497,0.031434
V1,329,1.168047,0.037664
V1,330,1.171598,0.041951
V1,331,1.175148,0.037903
V1,332,1.178698,0.030216
V1,333,1.182249,0.026476
V1,334,1.185799,0.024686
V1,335,1.189349,0.022442
V1,336,1.192899,0.021511
V1,337,1.19645,0.019849
V1,338,1.2,0.014452
V1,339,1.20355,0.008306
V1,340,1.207101,0.007109
V1,341,1.210651,0.011375
V1,342,1.214201,0.015879
V1,343,1.217751,0.017978
V1,344,1.221302,0.019624
V1,345,1.224852,0.020487
V1,346,1.228402,0.019637
V1,347,1.231953,0.017242
V1,348,1.235503,0.01024
V1,349,1.239053,-0.000729
V1,350,1.242604,-0.007873
V1,351,1.246154,-0.008012
V1,352,1.249704,-0.005749
V1,353,1.253254,-0.00514
V1,354,1.256805,-0.006907
V1,355,1.260355,-0.009752
V1,356,1.263905,-0.011077
V1,357,1.267456,-0.009797
V1,358,1.271006,-0.008178
V1,359,1.274556,-0.008308
V1,360,1.278107,-0.008503
V1,361,1.281657,-0.006815
V1,362,1.285207,-0.004661
V1,363,1.288757,-0.005264
V1,364,1.292308,-0.01064
V1,365,1.295858,-0.018299
V1,366,1.299408,-0.025521
V1,367,1.302959,-0.034358
V1,368,1.306509,-0.044811
V1,369,1.310059,-0.056977
V1,370,1.313609,-0.073854
V1,371,1.31716,-0.091511
V1,372,1.32071,-0.103612
V1,373,1.32426,-0.105708
V1,374,1.327811,-0.097119
V1,375,1.331361,-0.086064
V1,376,1.334911,-0.077532
V1,377,1.338462,-0.07283
V1,378,1.342012,-0.073342
V1,379,1.345562,-0.071928
V1,380,1.349112,-0.062446
V1,381,1.352663,-0.050151
V1,382,1.356213,-0.041818
V1,383,1.359763,-0.036589
V1,384,1.363314,-0.033157
V1,385,1.366864,-0.033347
V1,386,1.370414,-0.036041
V1,387,1.373964,-0.040718
V1,388,1.377515,-0.04743
V1,389,1.381065,-0.052311
V1,390,1.384615,-0.052561
V1,391,1.388166,-0.047958
V1,392,1.391716,-0.040176
V1,393,1.395266,-0.034773
V1,394,1.398817,-0.037721
V1,395,1.402367,-0.044728
V1,396,1.405917,-0.04356
V1,397,1.409467,-0.029175
V1,398,1.413018,-0.007021
V1,399,1.416568,0.031685
V1,400,1.420118,0.121857
V1,401,1.423669,0.214605
V1,402,1.427219,0.21777
V1,403,1.430769,0.183842
V1,404,1.43432,0.154022
V1,405,1.43787,0.065111
V1,406,1.44142,-0.088558
V1,407,1.44497,-0.265369
V1,408,1.448521,-0.41223
V1,409,1.452071,-0.489798
V1,410,1.455621,-0.505232
V1,411,1.459172,-0.465096
V1,412,1.462722,-0.366425
V1,413,1.466272,-0.246811
V1,414,1.469822,-0.158564
V1,415,1.473373,-0.100045
V1,416,1.476923,-0.064568
V1,417,1.480473,-0.057473
V1,418,1.484024,-0.064515
V1,419,1.487574,-0.074858
V1,420,1.491124,-0.077913
V1,421,1.494675,-0.075915
V1,422,1.498225,-0.079993
V1,423,1.501775,-0.082963
V1,424,1.505325,-0.080519
V1,425,1.508876,-0.07874
V1,426,1.512426,-0.078639
V1,427,1.515976,-0.07658
V1,428,1.519527,-0.074075
V1,429,1.523077,-0.072629
V1,430,1.526627,-0.067222
V1,431,1.530178,-0.059509
V1,432,1.533728,-0.055797
V1,433,1.537278,-0.055786
V1,434,1.540828,-0.056708
V1,435,1.544379,-0.056759
V1,436,1.547929,-0.055539
V1,437,1.551479,-0.052475
V1,438,1.55503,-0.047
V1,439,1.55858,-0.041956
V1,440,1.56213,-0.040317
V1,441,1.56568,-0.042073
V1,442,1.569231,-0.045164
V1,443,1.572781,-0.047468
V1,444,1.576331,-0.048782
V1,445,1.579882,-0.04734
V1,446,1.583432,-0.041163
V1,447,1.586982,-0.033788
V1,448,1.590533,-0.02843
V1,449,1.594083,-0.024885
V1,450,1.597633,-0.02364
V1,451,1.601183,-0.024106
V1,452,1.604734,-0.026319
V1,453,1.608284,-0.031904
V1,454,1.611834,-0.038379
V1,455,1.615385,-0.041445
V1,456,1.618935,-0.039895
V1,457,1.622485,-0.033612
V1,458,1.626036,-0.02391
V1,459,1.629586,-0.017501
V1,460,1.633136,-0.013422
V1,461,1.636686,-0.007982
V1,462,1.640237,-0.020212
V1,463,1.643787,-0.046342
V1,464,1.647337,-0.055306
V1,465,1.650888,-0.057096
V1,466,1.654438,-0.066018
V1,467,1.657988,-0.070159
V1,468,1.661538,-0.068604
V1,469,1.665089,-0.070647
V1,470,1.668639,-0.077189
V1,471,1.672189,-0.078028
V1,472,1.67574,-0.0841
V1,473,1.67929,-0.102704
V1,474,1.68284,-0.107784
V1,475,1.686391,-0.100541
V1,476,1.689941,-0.09787
V1,477,1.693491,-0.095625
V1,478,1.697041,-0.093869
V1,479,1.700592,-0.09242
V1,480,1.704142,-0.086728
V1,481,1.707692,-0.080091
V1,482,1.711243,-0.075529
V1,483,1.714793,-0.071783
V1,484,1.718343,-0.06935
V1,485,1.721893,-0.068853
V1,486,1.725444,-0.069124
V1,487,1.728994,-0.06634
V1,488,1.732544,-0.056945
V1,489,1.736095,-0.044315
V1,490,1.739645,-0.032111
V1,491,1.743195,-0.02139
V1,492,1.746746,-0.015774
V1,493,1.750296,-0.015871
V1,494,1.753846,-0.018629
V1,495,1.757396,-0.022276
V1,496,1.760947,-0.026601
V1,497,1.764497,-0.032903
V1,498,1.768047,-0.03944
V1,499,1.771598,-0.042152
V1,500,1.775148,-0.04202
V1,501,1.778698,-0.041517
V1,502,1.782249,-0.038686
V1,503,1.785799,-0.032263
V1,504,1.789349,-0.026052
V1,505,1.792899,-0.023916
V1,506,1.79645,-0.025817
V1,507,1.8,-0.029397
V1,508,1.80355,-0.031359
V1,509,1.807101,-0.029252
V1,510,1.810651,-0.025452
V1,511,1.814201,-0.02542
V1,512,1.817751,-0.028784
V1,513,1.821302,-0.030545
V1,514,1.824852,-0.030463
V1,515,1.828402,-0.030809
V1,516,1.831953,-0.031052
V1,517,1.835503,-0.030731
V1,518,1.839053,-0.029759
V1,519,1.842604,-0.027011
V1,520,1.846154,-0.023055
V1,521,1.849704,-0.018796
V1,522,1.853254,-0.01452
V1,523,1.856805,-0.013966
V1,524,1.860355,-0.019416
V1,525,1.863905,-0.025863
V1,526,1.867456,-0.028453
V1,527,1.871006,-0.028788
V1,528,1.874556,-0.03069
V1,529,1.878107,-0.033925
V1,530,1.881657,-0.035578
V1,531,1.885207,-0.035722
V1,532,1.888757,-0.036036
V1,533,1.892308,-0.036187
V1,534,1.895858,-0.035296
V1,535,1.899408,-0.034441
V1,536,1.902959,-0.036333
V1,537,1.906509,-0.040924
V1,538,1.910059,-0.043541
V1,539,1.913609,-0.04083
V1,540,1.91716,-0.035711
V1,541,1.92071,-0.032488
V1,542,1.92426,-0.032403
V1,543,1.927811,-0.037761
V1,544,1.931361,-0.048312
V1,545,1.934911,-0.056394
V1,546,1.938462,-0.05773
V1,547,1.942012,-0.054712
V1,548,1.945562,-0.048552
V1,549,1.949112,-0.040403
V1,550,1.952663,-0.033254
V1,551,1.956213,-0.030258
V1,552,1.959763,-0.034168
V1,553,1.963314,-0.045259
V1,554,1.966864,-0.060159
V1,555,1.970414,-0.074799
V1,556,1.973964,-0.087309
V1,557,1.977515,-0.095292
V1,558,1.981065,-0.097418
V1,559,1.984615,-0.097291
V1,560,1.988166,-0.097962
V1,561,1.991716,-0.098388
V1,562,1.995266,-0.094072
V1,563,1.998817,-0.083494
V1,564,2.002367,-0.072964
V1,565,2.005917,-0.065583
V1,566,2.009467,-0.059067
V1,567,2.013018,-0.053916
V1,568,2.016568,-0.050281
V1,569,2.020118,-0.048696
V1,570,2.023669,-0.05269
V1,571,2.027219,-0.058242
V1,572,2.030769,-0.056797
V1,573,2.03432,-0.04883
V1,574,2.03787,-0.038736
V1,575,2.04142,-0.031047
V1,576,2.04497,-0.03187
V1,577,2.048521,-0.039341
V1,578,2.052071,-0.045447
V1,579,2.055621,-0.047262
V1,580,2.059172,-0.040991
V1,581,2.062722,-0.025072
V1,582,2.066272,-0.005109
V1,583,2.069822,0.023443
V1,584,2.073373,0.062809
V1,585,2.076923,0.102471
V1,586,2.080473,0.136505
V1,587,2.084024,0.161885
V1,588,2.087574,0.177122
V1,589,2.091124,0.155437
V1,590,2.094675,0.049867
V1,591,2.098225,-0.119596
V1,592,2.101775,-0.26621
V1,593,2.105325,-0.348943
V1,594,2.108876,-0.392008
V1,595,2.112426,-0.394643
V1,596,2.115976,-0.337906
V1,597,2.119527,-0.244999
V1,598,2.123077,-0.155761
V1,599,2.126627,-0.093291
V1,600,2.130178,-0.055632
V1,601,2.133728,-0.027131
V1,602,2.137278,-0.006025
V1,603,2.140828,0.000215
V1,604,2.144379,-0.003028
V1,605,2.147929,-0.00564
V1,606,2.151479,-0.013217
V1,607,2.15503,-0.023258
V1,608,2.15858,-0.01992
V1,609,2.16213,-0.009997
V1,610,2.16568,-0.003636
V1,611,2.169231,0.002591
V1,612,2.172781,0.005911
V1,613,2.176331,0.002818
V1,614,2.179882,-0.004166
V1,615,2.183432,-0.010885
V1,616,2.186982,-0.014195
V1,617,2.190533,-0.012122
V1,618,2.194083,-0.00469
V1,619,2.197633,0.003545
V1,620,2.201183,0.009138
V1,621,2.204734,0.012887
V1,622,2.208284,0.01423
V1,623,2.211834,0.012183
V1,624,2.215385,0.009218
V1,625,2.218935,0.00841
V1,626,2.222485,0.011124
V1,627,2.226036,0.016981
V1,628,2.229586,0.022881
V1,629,2.233136,0.02578
V1,630,2.236686,0.027151
V1,631,2.240237,0.030673
V1,632,2.243787,0.034793
V1,633,2.247337,0.033991
V1,634,2.250888,0.029843
V1,635,2.254438,0.028186
V1,636,2.257988,0.027274
V1,637,2.261538,0.023841
V1,638,2.265089,0.021217
V1,639,2.268639,0.022868
V1,640,2.272189,0.027402
V1,641,2.27574,0.030525
V1,642,2.27929,0.02953
V1,643,2.28284,0.025591
V1,644,2.286391,0.020452
V1,645,2.289941,0.016068
V1,646,2.293491,0.014137
V1,647,2.297041,0.011412
V1,648,2.300592,0.004674
V1,649,2.304142,-0.002873
V1,650,2.307692,-0.007363
V1,651,2.311243,-0.009739
